#Wavelength(nm)   Flambda(ergs/cm^s/s/nm) (arbitrary scaling)
22.002847 0.004153
22.007914 0.004231
22.012982 0.004309
22.018051 0.004387
22.023122 0.004465
22.028193 0.004543
22.033266 0.004622
22.038340 0.004700
22.043415 0.004778
22.048492 0.004856
22.053569 0.004934
22.058648 0.005012
22.063727 0.005091
22.068808 0.005169
22.073890 0.005247
22.078974 0.005325
22.084058 0.005404
22.089144 0.005482
22.094231 0.005560
22.099319 0.005639
22.104408 0.005717
22.109498 0.005796
22.114589 0.005874
22.119682 0.005952
22.124776 0.006031
22.129871 0.006109
22.134967 0.006188
22.140065 0.006266
22.145163 0.006345
22.150263 0.006423
22.155364 0.006502
22.160466 0.006580
22.165569 0.006659
22.170673 0.006738
22.175779 0.006816
22.180886 0.006895
22.185994 0.006974
22.191103 0.007052
22.196213 0.007131
22.201324 0.007210
22.206437 0.007288
22.211551 0.007367
22.216666 0.007446
22.221782 0.007525
22.226899 0.007604
22.232018 0.007682
22.237138 0.007761
22.242258 0.007840
22.247380 0.007919
22.252504 0.007998
22.257628 0.008077
22.262754 0.008156
22.267880 0.008235
22.273008 0.008314
22.278138 0.008393
22.283268 0.008472
22.288399 0.008551
22.293532 0.008630
22.298666 0.008709
22.303801 0.008788
22.308937 0.008867
22.314075 0.008946
22.319213 0.009025
22.324353 0.009104
22.329494 0.009184
22.334636 0.009263
22.339779 0.009342
22.344924 0.009421
22.350070 0.009501
22.355217 0.009580
22.360365 0.009659
22.365514 0.009738
22.370664 0.009818
22.375816 0.009897
22.380969 0.009976
22.386123 0.010056
22.391278 0.010135
22.396434 0.010215
22.401592 0.010294
22.406751 0.010373
22.411911 0.010453
22.417072 0.010532
22.422234 0.010612
22.427398 0.010691
22.432562 0.010771
22.437728 0.010851
22.442895 0.010930
22.448063 0.011010
22.453233 0.011089
22.458404 0.011169
22.463575 0.011249
22.468748 0.011328
22.473923 0.011408
22.479098 0.011488
22.484275 0.011567
22.489452 0.011647
22.494631 0.011727
22.499812 0.011807
22.504993 0.011886
22.510176 0.011966
22.515359 0.012046
22.520544 0.012126
22.525730 0.012206
22.530918 0.012286
22.536106 0.012366
22.541296 0.012446
22.546487 0.012525
22.551679 0.012605
22.556872 0.012685
22.562067 0.012765
22.567263 0.012845
22.572459 0.012925
22.577658 0.013006
22.582857 0.013086
22.588057 0.013166
22.593259 0.013246
22.598462 0.013326
22.603666 0.013406
22.608871 0.013486
22.614078 0.013566
22.619285 0.013647
22.624494 0.013727
22.629704 0.013807
22.634916 0.013887
22.640128 0.013968
22.645342 0.014048
22.650557 0.014128
22.655773 0.014209
22.660990 0.014289
22.666209 0.014369
22.671428 0.014450
22.676649 0.014530
22.681871 0.014610
22.687095 0.014691
22.692319 0.014771
22.697545 0.014852
22.702772 0.014932
22.708000 0.015013
22.713229 0.015093
22.718460 0.015174
22.723691 0.015255
22.728924 0.015335
22.734158 0.015416
22.739394 0.015496
22.744630 0.015577
22.749868 0.015658
22.755107 0.015738
22.760347 0.015819
22.765589 0.015900
22.770831 0.015981
22.776075 0.016061
22.781320 0.016142
22.786566 0.016223
22.791813 0.016304
22.797062 0.016384
22.802312 0.016465
22.807563 0.016546
22.812815 0.016627
22.818069 0.016708
22.823323 0.016789
22.828579 0.016870
22.833836 0.016951
22.839095 0.017032
22.844354 0.017113
22.849615 0.017194
22.854877 0.017275
22.860140 0.017356
22.865404 0.017437
22.870670 0.017518
22.875936 0.017599
22.881204 0.017680
22.886474 0.017761
22.891744 0.017843
22.897016 0.017924
22.902289 0.018005
22.907563 0.018086
22.912838 0.018168
22.918114 0.018249
22.923392 0.018330
22.928671 0.018411
22.933951 0.018493
22.939232 0.018574
22.944515 0.018655
22.949799 0.018737
22.955084 0.018818
22.960370 0.018900
22.965657 0.018981
22.970946 0.019062
22.976236 0.019144
22.981527 0.019225
22.986819 0.019307
22.992113 0.019388
22.997408 0.019470
23.002704 0.019507
23.008001 0.019500
23.013299 0.019494
23.018599 0.019488
23.023900 0.019482
23.029202 0.019475
23.034505 0.019469
23.039809 0.019463
23.045115 0.019457
23.050422 0.019450
23.055730 0.019444
23.061040 0.019438
23.066350 0.019431
23.071662 0.019425
23.076975 0.019419
23.082289 0.019413
23.087605 0.019406
23.092922 0.019400
23.098240 0.019394
23.103559 0.019387
23.108879 0.019381
23.114201 0.019375
23.119524 0.019369
23.124848 0.019362
23.130173 0.019356
23.135500 0.019350
23.140827 0.019343
23.146156 0.019337
23.151487 0.019331
23.156818 0.019325
23.162151 0.019318
23.167485 0.019312
23.172820 0.019306
23.178156 0.019299
23.183494 0.019293
23.188832 0.019287
23.194172 0.019280
23.199514 0.019274
23.204856 0.019268
23.210200 0.019261
23.215545 0.019255
23.220891 0.019249
23.226239 0.019242
23.231587 0.019236
23.236937 0.019230
23.242288 0.019223
23.247641 0.019217
23.252994 0.019211
23.258349 0.019205
23.263705 0.019198
23.269062 0.019192
23.274421 0.019186
23.279781 0.019179
23.285142 0.019173
23.290504 0.019166
23.295867 0.019160
23.301232 0.019154
23.306598 0.019147
23.311965 0.019141
23.317333 0.019135
23.322703 0.019128
23.328074 0.019122
23.333446 0.019116
23.338819 0.019109
23.344194 0.019103
23.349570 0.019097
23.354947 0.019090
23.360325 0.019084
23.365705 0.019078
23.371085 0.019071
23.376467 0.019065
23.381851 0.019059
23.387235 0.019052
23.392621 0.019046
23.398008 0.019039
23.403396 0.019033
23.408785 0.019027
23.414176 0.019020
23.419568 0.019014
23.424961 0.019008
23.430356 0.019001
23.435751 0.018995
23.441148 0.018988
23.446546 0.018982
23.451946 0.018976
23.457346 0.018969
23.462748 0.018963
23.468151 0.018957
23.473556 0.018950
23.478961 0.018944
23.484368 0.018937
23.489776 0.018931
23.495186 0.018925
23.500596 0.018918
23.506008 0.018912
23.511421 0.018905
23.516836 0.018899
23.522251 0.018893
23.527668 0.018886
23.533086 0.018880
23.538505 0.018873
23.543926 0.018867
23.549348 0.018861
23.554771 0.018854
23.560195 0.018848
23.565621 0.018841
23.571047 0.018835
23.576475 0.018828
23.581905 0.018822
23.587335 0.018816
23.592767 0.018809
23.598200 0.018803
23.603635 0.018796
23.609070 0.018790
23.614507 0.018784
23.619945 0.018777
23.625384 0.018771
23.630825 0.018764
23.636267 0.018758
23.641710 0.018751
23.647154 0.018745
23.652600 0.018738
23.658047 0.018732
23.663495 0.018726
23.668944 0.018719
23.674395 0.018713
23.679846 0.018706
23.685300 0.018700
23.690754 0.018693
23.696210 0.018687
23.701666 0.018680
23.707125 0.018674
23.712584 0.018668
23.718045 0.018661
23.723507 0.018655
23.728970 0.018648
23.734434 0.018642
23.739900 0.018635
23.745367 0.018629
23.750835 0.018622
23.756304 0.018616
23.761775 0.018609
23.767247 0.018603
23.772720 0.018597
23.778195 0.018590
23.783671 0.018584
23.789148 0.018577
23.794626 0.018571
23.800105 0.018564
23.805586 0.018558
23.811068 0.018551
23.816552 0.018545
23.822036 0.018538
23.827522 0.018532
23.833009 0.018525
23.838498 0.018519
23.843987 0.018512
23.849478 0.018506
23.854970 0.018499
23.860464 0.018493
23.865959 0.018486
23.871455 0.018480
23.876952 0.018473
23.882450 0.018467
23.887950 0.018460
23.893451 0.018454
23.898953 0.018447
23.904457 0.018441
23.909962 0.018434
23.915468 0.018428
23.920975 0.018421
23.926484 0.018415
23.931994 0.018408
23.937505 0.018402
23.943017 0.018395
23.948531 0.018389
23.954046 0.018382
23.959562 0.018376
23.965080 0.018369
23.970599 0.018363
23.976119 0.018356
23.981640 0.018350
23.987163 0.018343
23.992687 0.018336
23.998212 0.018330
24.003738 0.018325
24.009266 0.018320
24.014795 0.018315
24.020325 0.018310
24.025857 0.018306
24.031389 0.018301
24.036924 0.018296
24.042459 0.018291
24.047995 0.018286
24.053533 0.018282
24.059073 0.018277
24.064613 0.018272
24.070155 0.018267
24.075698 0.018263
24.081242 0.018258
24.086788 0.018253
24.092334 0.018248
24.097882 0.018243
24.103432 0.018239
24.108983 0.018234
24.114534 0.018229
24.120088 0.018224
24.125642 0.018220
24.131198 0.018215
24.136755 0.018210
24.142313 0.018205
24.147873 0.018200
24.153434 0.018196
24.158996 0.018191
24.164559 0.018186
24.170124 0.018181
24.175690 0.018176
24.181258 0.018172
24.186826 0.018167
24.192396 0.018162
24.197967 0.018157
24.203540 0.018152
24.209113 0.018148
24.214688 0.018143
24.220265 0.018138
24.225842 0.018133
24.231421 0.018128
24.237001 0.018124
24.242582 0.018119
24.248165 0.018114
24.253749 0.018109
24.259334 0.018104
24.264921 0.018099
24.270509 0.018095
24.276098 0.018090
24.281688 0.018085
24.287280 0.018080
24.292873 0.018075
24.298467 0.018071
24.304063 0.018066
24.309660 0.018061
24.315258 0.018056
24.320857 0.018051
24.326458 0.018046
24.332060 0.018042
24.337663 0.018037
24.343268 0.018032
24.348874 0.018027
24.354481 0.018022
24.360090 0.018017
24.365699 0.018013
24.371310 0.018008
24.376923 0.018003
24.382536 0.017998
24.388151 0.017993
24.393768 0.017988
24.399385 0.017984
24.405004 0.017979
24.410624 0.017974
24.416245 0.017969
24.421868 0.017964
24.427492 0.017959
24.433117 0.017954
24.438744 0.017950
24.444372 0.017945
24.450001 0.017940
24.455632 0.017935
24.461263 0.017930
24.466896 0.017925
24.472531 0.017920
24.478166 0.017916
24.483803 0.017911
24.489442 0.017906
24.495081 0.017901
24.500722 0.017896
24.506364 0.017891
24.512008 0.017886
24.517652 0.017882
24.523298 0.017877
24.528946 0.017872
24.534594 0.017867
24.540244 0.017862
24.545896 0.017857
24.551548 0.017852
24.557202 0.017848
24.562857 0.017843
24.568514 0.017838
24.574171 0.017833
24.579830 0.017828
24.585491 0.017823
24.591152 0.017818
24.596815 0.017813
24.602480 0.017808
24.608145 0.017804
24.613812 0.017799
24.619480 0.017794
24.625150 0.017789
24.630821 0.017784
24.636493 0.017779
24.642166 0.017774
24.647841 0.017769
24.653517 0.017764
24.659194 0.017760
24.664873 0.017755
24.670553 0.017750
24.676234 0.017745
24.681917 0.017740
24.687601 0.017735
24.693286 0.017730
24.698972 0.017725
24.704660 0.017720
24.710349 0.017715
24.716040 0.017711
24.721731 0.017706
24.727424 0.017701
24.733119 0.017696
24.738814 0.017691
24.744511 0.017686
24.750210 0.017681
24.755909 0.017676
24.761610 0.017671
24.767312 0.017666
24.773016 0.017661
24.778721 0.017657
24.784427 0.017652
24.790134 0.017647
24.795843 0.017642
24.801553 0.017637
24.807265 0.017632
24.812978 0.017627
24.818692 0.017622
24.824407 0.017617
24.830124 0.017612
24.835842 0.017607
24.841561 0.017602
24.847282 0.017597
24.853004 0.017592
24.858727 0.017588
24.864451 0.017583
24.870177 0.017578
24.875905 0.017573
24.881633 0.017568
24.887363 0.017563
24.893094 0.017558
24.898827 0.017553
24.904560 0.017548
24.910296 0.017543
24.916032 0.017538
24.921770 0.017533
24.927509 0.017528
24.933249 0.017523
24.938991 0.017518
24.944734 0.017513
24.950479 0.017508
24.956224 0.017504
24.961971 0.017499
24.967720 0.017494
24.973469 0.017489
24.979221 0.017484
24.984973 0.017479
24.990727 0.017474
24.996482 0.017469
25.002238 0.017466
25.007995 0.017467
25.013754 0.017468
25.019515 0.017469
25.025276 0.017470
25.031039 0.017471
25.036804 0.017472
25.042569 0.017473
25.048336 0.017474
25.054104 0.017475
25.059874 0.017476
25.065645 0.017477
25.071417 0.017478
25.077191 0.017479
25.082966 0.017480
25.088742 0.017481
25.094519 0.017482
25.100298 0.017483
25.106078 0.017483
25.111860 0.017484
25.117643 0.017485
25.123427 0.017486
25.129213 0.017487
25.135000 0.017488
25.140788 0.017489
25.146577 0.017490
25.152368 0.017491
25.158160 0.017492
25.163954 0.017493
25.169749 0.017494
25.175545 0.017495
25.181343 0.017496
25.187141 0.017497
25.192942 0.017498
25.198743 0.017499
25.204546 0.017500
25.210350 0.017501
25.216156 0.017502
25.221963 0.017503
25.227771 0.017504
25.233581 0.017505
25.239392 0.017506
25.245204 0.017507
25.251017 0.017508
25.256832 0.017509
25.262649 0.017510
25.268466 0.017511
25.274285 0.017512
25.280105 0.017513
25.285927 0.017514
25.291750 0.017514
25.297574 0.017515
25.303400 0.017516
25.309227 0.017517
25.315055 0.017518
25.320885 0.017519
25.326716 0.017520
25.332548 0.017521
25.338382 0.017522
25.344217 0.017523
25.350054 0.017524
25.355891 0.017525
25.361730 0.017526
25.367571 0.017527
25.373413 0.017528
25.379256 0.017529
25.385100 0.017530
25.390946 0.017531
25.396793 0.017532
25.402642 0.017533
25.408492 0.017534
25.414343 0.017535
25.420195 0.017536
25.426049 0.017537
25.431904 0.017538
25.437761 0.017539
25.443619 0.017540
25.449478 0.017541
25.455339 0.017542
25.461201 0.017543
25.467064 0.017544
25.472929 0.017545
25.478795 0.017546
25.484662 0.017547
25.490531 0.017548
25.496401 0.017549
25.502272 0.017550
25.508145 0.017551
25.514019 0.017552
25.519895 0.017553
25.525772 0.017554
25.531650 0.017555
25.537530 0.017556
25.543410 0.017556
25.549293 0.017557
25.555176 0.017558
25.561061 0.017559
25.566948 0.017560
25.572835 0.017561
25.578724 0.017562
25.584615 0.017563
25.590507 0.017564
25.596400 0.017565
25.602294 0.017566
25.608190 0.017567
25.614087 0.017568
25.619986 0.017569
25.625886 0.017570
25.631787 0.017571
25.637689 0.017572
25.643593 0.017573
25.649499 0.017574
25.655405 0.017575
25.661313 0.017576
25.667223 0.017577
25.673134 0.017578
25.679046 0.017579
25.684959 0.017580
25.690874 0.017581
25.696790 0.017582
25.702708 0.017583
25.708627 0.017584
25.714547 0.017585
25.720469 0.017586
25.726392 0.017587
25.732316 0.017588
25.738242 0.017589
25.744169 0.017590
25.750098 0.017591
25.756028 0.017592
25.761959 0.017593
25.767891 0.017594
25.773825 0.017595
25.779761 0.017596
25.785697 0.017597
25.791635 0.017598
25.797575 0.017599
25.803516 0.017600
25.809458 0.017601
25.815401 0.017602
25.821346 0.017603
25.827293 0.017604
25.833240 0.017605
25.839189 0.017606
25.845140 0.017607
25.851091 0.017608
25.857044 0.017609
25.862999 0.017610
25.868955 0.017611
25.874912 0.017612
25.880871 0.017613
25.886831 0.017614
25.892792 0.017615
25.898755 0.017616
25.904719 0.017617
25.910684 0.017618
25.916651 0.017619
25.922619 0.017620
25.928589 0.017621
25.934560 0.017622
25.940532 0.017623
25.946506 0.017624
25.952481 0.017625
25.958457 0.017626
25.964435 0.017627
25.970415 0.017628
25.976395 0.017629
25.982377 0.017630
25.988360 0.017631
25.994345 0.017632
26.000331 0.017633
26.006319 0.017641
26.012308 0.017648
26.018298 0.017656
26.024290 0.017663
26.030283 0.017671
26.036277 0.017679
26.042273 0.017686
26.048270 0.017694
26.054268 0.017701
26.060268 0.017709
26.066270 0.017717
26.072272 0.017724
26.078276 0.017732
26.084282 0.017739
26.090289 0.017747
26.096297 0.017755
26.102306 0.017762
26.108317 0.017770
26.114330 0.017777
26.120343 0.017785
26.126358 0.017793
26.132375 0.017800
26.138393 0.017808
26.144412 0.017815
26.150433 0.017823
26.156455 0.017831
26.162478 0.017838
26.168503 0.017846
26.174529 0.017854
26.180557 0.017861
26.186586 0.017869
26.192616 0.017876
26.198648 0.017884
26.204681 0.017892
26.210716 0.017899
26.216752 0.017907
26.222789 0.017915
26.228828 0.017922
26.234868 0.017930
26.240909 0.017938
26.246952 0.017945
26.252997 0.017953
26.259042 0.017960
26.265089 0.017968
26.271138 0.017976
26.277188 0.017983
26.283239 0.017991
26.289291 0.017999
26.295346 0.018006
26.301401 0.018014
26.307458 0.018022
26.313516 0.018029
26.319576 0.018037
26.325637 0.018045
26.331699 0.018052
26.337763 0.018060
26.343828 0.018068
26.349895 0.018075
26.355963 0.018083
26.362032 0.018091
26.368103 0.018098
26.374175 0.018106
26.380248 0.018114
26.386323 0.018122
26.392400 0.018129
26.398478 0.018137
26.404557 0.018145
26.410637 0.018152
26.416719 0.018160
26.422803 0.018168
26.428887 0.018175
26.434974 0.018183
26.441061 0.018191
26.447150 0.018199
26.453241 0.018206
26.459332 0.018214
26.465426 0.018222
26.471520 0.018229
26.477616 0.018237
26.483714 0.018245
26.489812 0.018253
26.495913 0.018260
26.502014 0.018268
26.508117 0.018276
26.514222 0.018283
26.520327 0.018291
26.526435 0.018299
26.532543 0.018307
26.538653 0.018314
26.544765 0.018322
26.550878 0.018330
26.556992 0.018338
26.563108 0.018345
26.569225 0.018353
26.575343 0.018361
26.581463 0.018368
26.587584 0.018376
26.593707 0.018384
26.599831 0.018392
26.605957 0.018399
26.612084 0.018407
26.618212 0.018415
26.624342 0.018423
26.630473 0.018431
26.636606 0.018438
26.642740 0.018446
26.648875 0.018454
26.655012 0.018462
26.661150 0.018469
26.667290 0.018477
26.673431 0.018485
26.679573 0.018493
26.685717 0.018500
26.691863 0.018508
26.698009 0.018516
26.704158 0.018524
26.710307 0.018532
26.716458 0.018539
26.722611 0.018547
26.728764 0.018555
26.734920 0.018563
26.741076 0.018570
26.747234 0.018578
26.753394 0.018586
26.759555 0.018594
26.765717 0.018602
26.771881 0.018609
26.778046 0.018617
26.784212 0.018625
26.790380 0.018633
26.796550 0.018641
26.802721 0.018648
26.808893 0.018656
26.815067 0.018664
26.821242 0.018672
26.827418 0.018680
26.833596 0.018688
26.839776 0.018695
26.845956 0.018703
26.852139 0.018711
26.858322 0.018719
26.864507 0.018727
26.870694 0.018734
26.876882 0.018742
26.883071 0.018750
26.889262 0.018758
26.895454 0.018766
26.901648 0.018774
26.907843 0.018781
26.914039 0.018789
26.920237 0.018797
26.926437 0.018805
26.932637 0.018813
26.938839 0.018821
26.945043 0.018829
26.951248 0.018836
26.957455 0.018844
26.963662 0.018852
26.969872 0.018860
26.976083 0.018868
26.982295 0.018876
26.988508 0.018884
26.994723 0.018891
27.000940 0.018897
27.007158 0.018891
27.013377 0.018886
27.019598 0.018880
27.025820 0.018874
27.032044 0.018868
27.038269 0.018862
27.044495 0.018857
27.050723 0.018851
27.056953 0.018845
27.063183 0.018839
27.069416 0.018833
27.075649 0.018828
27.081885 0.018822
27.088121 0.018816
27.094359 0.018810
27.100598 0.018804
27.106839 0.018799
27.113082 0.018793
27.119325 0.018787
27.125571 0.018781
27.131817 0.018775
27.138065 0.018769
27.144315 0.018764
27.150566 0.018758
27.156818 0.018752
27.163072 0.018746
27.169327 0.018740
27.175584 0.018735
27.181842 0.018729
27.188101 0.018723
27.194362 0.018717
27.200625 0.018711
27.206889 0.018705
27.213154 0.018700
27.219421 0.018694
27.225689 0.018688
27.231959 0.018682
27.238230 0.018676
27.244502 0.018670
27.250776 0.018664
27.257052 0.018659
27.263329 0.018653
27.269607 0.018647
27.275887 0.018641
27.282168 0.018635
27.288451 0.018629
27.294735 0.018623
27.301021 0.018618
27.307308 0.018612
27.313596 0.018606
27.319886 0.018600
27.326177 0.018594
27.332470 0.018588
27.338764 0.018582
27.345060 0.018577
27.351357 0.018571
27.357656 0.018565
27.363956 0.018559
27.370257 0.018553
27.376560 0.018547
27.382865 0.018541
27.389171 0.018536
27.395478 0.018530
27.401787 0.018524
27.408097 0.018518
27.414409 0.018512
27.420722 0.018506
27.427036 0.018500
27.433352 0.018494
27.439670 0.018488
27.445989 0.018483
27.452309 0.018477
27.458631 0.018471
27.464954 0.018465
27.471279 0.018459
27.477605 0.018453
27.483933 0.018447
27.490262 0.018441
27.496593 0.018435
27.502925 0.018430
27.509258 0.018424
27.515593 0.018418
27.521930 0.018412
27.528268 0.018406
27.534607 0.018400
27.540948 0.018394
27.547290 0.018388
27.553634 0.018382
27.559979 0.018376
27.566326 0.018370
27.572674 0.018365
27.579023 0.018359
27.585374 0.018353
27.591727 0.018347
27.598081 0.018341
27.604436 0.018335
27.610793 0.018329
27.617151 0.018323
27.623511 0.018317
27.629873 0.018311
27.636235 0.018305
27.642600 0.018299
27.648965 0.018293
27.655332 0.018288
27.661701 0.018282
27.668071 0.018276
27.674443 0.018270
27.680816 0.018264
27.687190 0.018258
27.693566 0.018252
27.699943 0.018246
27.706322 0.018240
27.712703 0.018234
27.719084 0.018228
27.725468 0.018222
27.731853 0.018216
27.738239 0.018210
27.744626 0.018204
27.751016 0.018198
27.757406 0.018192
27.763798 0.018186
27.770192 0.018180
27.776587 0.018175
27.782984 0.018169
27.789382 0.018163
27.795781 0.018157
27.802182 0.018151
27.808584 0.018145
27.814988 0.018139
27.821394 0.018133
27.827801 0.018127
27.834209 0.018121
27.840619 0.018115
27.847030 0.018109
27.853443 0.018103
27.859857 0.018097
27.866273 0.018091
27.872690 0.018085
27.879108 0.018079
27.885529 0.018073
27.891950 0.018067
27.898373 0.018061
27.904798 0.018055
27.911224 0.018049
27.917652 0.018043
27.924081 0.018037
27.930511 0.018031
27.936943 0.018025
27.943376 0.018019
27.949811 0.018013
27.956248 0.018007
27.962686 0.018001
27.969125 0.017995
27.975566 0.017989
27.982008 0.017983
27.988452 0.017977
27.994898 0.017971
28.001344 0.017968
28.007793 0.017976
