# Version 2.1 - nm, norm@500 to 1, cut digits
# Wavelength(nm)  Flambda(ergs/cm^s/s/nm)
300.00 0.01016459
300.10 0.01351129
300.20 0.01554921
300.30 0.01639162
300.40 0.0166119
300.50 0.01667621
300.60 0.01674052
300.70 0.01680551
300.80 0.01687381
300.90 0.01695055
301.00 0.01704134
301.10 0.01714866
301.20 0.01727002
301.30 0.01739982
301.40 0.01753293
301.50 0.01766671
301.60 0.0178005
301.70 0.01793428
301.80 0.01806806
301.90 0.01820184
302.00 0.01833562
302.10 0.0184694
302.20 0.01860318
302.30 0.01873696
302.40 0.01887074
302.50 0.01900452
302.60 0.0191383
302.70 0.01927258
302.80 0.01940939
302.90 0.0195526
303.00 0.01970647
303.10 0.01987289
303.20 0.02004998
303.30 0.02023347
303.40 0.02041948
303.50 0.02060599
303.60 0.02079251
303.70 0.02097902
303.80 0.02116554
303.90 0.02135205
304.00 0.02153856
304.10 0.02172508
304.20 0.02191159
304.30 0.02209811
304.40 0.02228462
304.50 0.02247114
304.60 0.02265765
304.70 0.02284262
304.80 0.02301988
304.90 0.02317756
305.00 0.02330264
305.10 0.0233893
305.20 0.02344336
305.30 0.02347784
305.40 0.02350461
305.50 0.02352984
305.60 0.02355506
305.70 0.02358029
305.80 0.02360551
305.90 0.02363074
306.00 0.02365596
306.10 0.02368119
306.20 0.02370641
306.30 0.02373164
306.40 0.02375687
306.50 0.02378209
306.60 0.02380732
306.70 0.02383255
306.80 0.02385779
306.90 0.02388308
307.00 0.02390844
307.10 0.02393388
307.20 0.0239594
307.30 0.02398495
307.40 0.02401052
307.50 0.0240361
307.60 0.02406168
307.70 0.02408725
307.80 0.02411283
307.90 0.0241384
308.00 0.02416398
308.10 0.02418956
308.20 0.02421513
308.30 0.02424071
308.40 0.02426628
308.50 0.02429186
308.60 0.02431743
308.70 0.02434687
308.80 0.02439561
308.90 0.02449334
309.00 0.02467269
309.10 0.02494816
309.20 0.02530524
309.30 0.02571132
309.40 0.0261367
309.50 0.02656594
309.60 0.02699518
309.70 0.02742442
309.80 0.02785366
309.90 0.02828291
310.00 0.02871215
310.10 0.02914139
310.20 0.02957063
310.30 0.02999987
310.40 0.03042911
310.50 0.03085835
310.60 0.03128759
310.70 0.03171295
310.80 0.03211891
310.90 0.03247561
311.00 0.03275026
311.10 0.0329283
311.20 0.03302429
311.30 0.03307102
311.40 0.03309835
311.50 0.0331218
311.60 0.03314525
311.70 0.0331687
311.80 0.03319215
311.90 0.0332156
312.00 0.03323905
312.10 0.03326249
312.20 0.03328594
312.30 0.03330939
312.40 0.03333284
312.50 0.03335629
312.60 0.03337974
312.70 0.03340799
312.80 0.03346019
312.90 0.03357323
313.00 0.0337876
313.10 0.0341213
313.20 0.03455634
313.30 0.03505221
313.40 0.03557203
313.50 0.03609666
313.60 0.03662128
313.70 0.03714591
313.80 0.03767053
313.90 0.03819515
314.00 0.03871978
314.10 0.0392444
314.20 0.03976902
314.30 0.04029365
314.40 0.04081827
314.50 0.04134289
314.60 0.04186752
314.70 0.04239548
314.80 0.04294012
314.90 0.0435271
315.00 0.04418463
315.10 0.04492522
315.20 0.04573635
315.30 0.04658982
315.40 0.04745997
315.50 0.04833346
315.60 0.04920695
315.70 0.05008044
315.80 0.05095393
315.90 0.05182742
316.00 0.05270091
316.10 0.0535744
316.20 0.05444788
316.30 0.05532137
316.40 0.05619486
316.50 0.05706835
316.60 0.05794185
316.70 0.05880306
316.80 0.05960298
316.90 0.06024724
317.00 0.06063221
317.10 0.06071185
317.20 0.0605322
317.30 0.06019689
317.40 0.05980029
317.50 0.0593914
317.60 0.05898252
317.70 0.05857364
317.80 0.05816477
317.90 0.05775589
318.00 0.05734701
318.10 0.05693813
318.20 0.05652925
318.30 0.05612037
318.40 0.05571149
318.50 0.05530261
318.60 0.05489373
318.70 0.05449425
318.80 0.05414169
318.90 0.05390828
319.00 0.05387335
319.10 0.05407216
319.20 0.05446945
319.30 0.05498589
319.40 0.05554925
319.50 0.05612202
319.60 0.05669478
319.70 0.05726754
319.80 0.0578403
319.90 0.05841306
320.00 0.05898582
320.10 0.05955858
320.20 0.06013134
320.30 0.0607041
320.40 0.06127686
320.50 0.06184962
320.60 0.06242238
320.70 0.06299167
320.80 0.0635436
320.90 0.06405146
321.00 0.06448591
321.10 0.06483392
321.20 0.06510852
321.30 0.06533905
321.40 0.06555222
321.50 0.06576192
321.60 0.06597162
321.70 0.06618132
321.80 0.06639102
321.90 0.06660072
322.00 0.06681042
322.10 0.06702012
322.20 0.06722982
322.30 0.06743952
322.40 0.06764922
322.50 0.06785892
322.60 0.06806862
322.70 0.06829101
322.80 0.0685768
322.90 0.06902355
323.00 0.06973844
323.10 0.07076908
323.20 0.07206787
323.30 0.07352761
323.40 0.07505075
323.50 0.07658659
323.60 0.07812242
323.70 0.07965825
323.80 0.08119409
323.90 0.08272992
324.00 0.08426575
324.10 0.08580159
324.20 0.08733742
324.30 0.08887325
324.40 0.09040908
324.50 0.09194492
324.60 0.09348075
324.70 0.09501452
324.80 0.09653799
324.90 0.09803532
325.00 0.09948909
325.10 0.1008916
325.20 0.1022505
325.30 0.1035833
325.40 0.1049057
325.50 0.1062262
325.60 0.1075466
325.70 0.108867
325.80 0.1101874
325.90 0.1115078
326.00 0.1128282
326.10 0.1141486
326.20 0.1154691
326.30 0.1167895
326.40 0.1181099
326.50 0.1194303
326.60 0.1207507
326.70 0.1220756
326.80 0.1234226
326.90 0.124826
327.00 0.1263233
327.10 0.1279312
327.20 0.1296329
327.30 0.1313909
327.40 0.1331712
327.50 0.1349559
327.60 0.1367406
327.70 0.1385253
327.80 0.14031
327.90 0.1420948
328.00 0.1438795
328.10 0.1456642
328.20 0.1474489
328.30 0.1492336
328.40 0.1510183
328.50 0.152803
328.60 0.1545877
328.70 0.1563464
328.80 0.1579748
328.90 0.1592725
329.00 0.1600195
329.10 0.1601178
329.20 0.1596652
329.30 0.1588821
329.40 0.1579687
329.50 0.1570292
329.60 0.1560897
329.70 0.1551502
329.80 0.1542107
329.90 0.1532713
330.00 0.1523318
330.10 0.1513923
330.20 0.1504528
330.30 0.1495134
330.40 0.1485739
330.50 0.1476344
330.60 0.1466949
330.70 0.1457748
330.80 0.1449513
330.90 0.144373
331.00 0.1442034
331.10 0.1445149
331.20 0.145235
331.30 0.1462004
331.40 0.1472624
331.50 0.1483437
331.60 0.1494251
331.70 0.1505064
331.80 0.1515878
331.90 0.1526691
332.00 0.1537505
332.10 0.1548318
332.20 0.1559132
332.30 0.1569945
332.40 0.1580758
332.50 0.1591572
332.60 0.1602385
332.70 0.1613076
332.80 0.1623156
332.90 0.1631682
333.00 0.1637621
333.10 0.1640514
333.20 0.164082
333.30 0.1639573
333.40 0.1637714
333.50 0.1635733
333.60 0.1633752
333.70 0.163177
333.80 0.1629789
333.90 0.1627808
334.00 0.1625827
334.10 0.1623845
334.20 0.1621864
334.30 0.1619883
334.40 0.1617901
334.50 0.161592
334.60 0.1615588
334.70 0.1620636
334.80 0.1632503
334.90 0.1644556
335.00 0.1644176
335.10 0.162792
335.20 0.1615654
335.30 0.1644518
335.40 0.1740323
335.50 0.188841
335.60 0.2032078
335.70 0.2105567
335.80 0.207647
335.90 0.1961786
336.00 0.1809784
336.10 0.1670162
336.20 0.1577578
336.30 0.154656
336.40 0.1565342
336.50 0.1597315
336.60 0.1602968
336.70 0.1572668
336.80 0.1538924
336.90 0.1550886
337.00 0.1632243
337.10 0.1758118
337.20 0.186931
337.30 0.1912974
337.40 0.1879719
337.50 0.1809469
337.60 0.1760934
337.70 0.1768056
337.80 0.1820082
337.90 0.188127
338.00 0.1924295
338.10 0.1941638
338.20 0.1929336
338.30 0.1874402
338.40 0.1772419
338.50 0.1653523
338.60 0.1577741
338.70 0.1591853
338.80 0.1685737
338.90 0.1795603
339.00 0.1855248
339.10 0.1850269
339.20 0.1826939
339.30 0.1846698
339.40 0.1929576
339.50 0.2041216
339.60 0.2130027
339.70 0.2170528
339.80 0.2169867
339.90 0.2142267
340.00 0.209339
340.10 0.2029086
340.20 0.1962878
340.30 0.1905035
340.40 0.1848641
340.50 0.1776845
340.60 0.1685588
340.70 0.1592993
340.80 0.1525006
340.90 0.1496388
341.00 0.1506149
341.10 0.154528
341.20 0.1603397
341.30 0.16683
341.40 0.1725615
341.50 0.1764354
341.60 0.1783433
341.70 0.1792151
341.80 0.1803123
341.90 0.1822958
342.00 0.1846399
342.10 0.1857354
342.20 0.1838685
342.30 0.1786621
342.40 0.1718515
342.50 0.1664057
342.60 0.1645325
342.70 0.166302
342.80 0.1699337
342.90 0.1732029
343.00 0.1748085
343.10 0.174958
343.20 0.1748828
343.30 0.175641
343.40 0.1771951
343.50 0.1786308
343.60 0.1791241
343.70 0.1784489
343.80 0.1767805
343.90 0.1745319
344.00 0.1724578
344.10 0.1714311
344.20 0.1716796
344.30 0.1724015
344.40 0.1724694
344.50 0.1715088
344.60 0.1702028
344.70 0.1696929
344.80 0.1708515
344.90 0.1739868
345.00 0.1789355
345.10 0.1851862
345.20 0.191906
345.30 0.1979419
345.40 0.2020054
345.50 0.2032933
345.60 0.2021584
345.70 0.2000506
345.80 0.1985258
345.90 0.1981576
346.00 0.1982812
346.10 0.1975745
346.20 0.1949816
346.30 0.1905433
346.40 0.1856644
346.50 0.1822963
346.60 0.1813856
346.70 0.1820517
346.80 0.1824052
346.90 0.1810861
347.00 0.1779651
347.10 0.1738827
347.20 0.1702339
347.30 0.1685739
347.40 0.1698916
347.50 0.1738302
347.60 0.1788533
347.70 0.183426
347.80 0.1870414
347.90 0.1902053
348.00 0.1936381
348.10 0.1974689
348.20 0.2009758
348.30 0.2030633
348.40 0.2031499
348.50 0.2016777
348.60 0.1996566
348.70 0.197743
348.80 0.195932
348.90 0.1940117
349.00 0.1919929
349.10 0.1900549
349.20 0.1883585
349.30 0.1871345
349.40 0.1867971
349.50 0.1876103
349.60 0.1891714
349.70 0.190471
349.80 0.190787
349.90 0.1906994
350.00 0.1920209
350.10 0.1963692
350.20 0.203616
350.30 0.2117246
350.40 0.2181393
350.50 0.2214012
350.60 0.2216284
350.70 0.2198335
350.80 0.2170617
350.90 0.2138979
351.00 0.2102387
351.10 0.205341
351.20 0.1984026
351.30 0.1895944
351.40 0.1806238
351.50 0.1739139
351.60 0.1708871
351.70 0.1709616
351.80 0.1722277
351.90 0.1730393
352.00 0.1729334
352.10 0.1722439
352.20 0.1713589
352.30 0.170615
352.40 0.170735
352.50 0.1730429
352.60 0.1787375
352.70 0.1876519
352.80 0.1977805
352.90 0.206398
353.00 0.2120663
353.10 0.215553
353.20 0.2186546
353.30 0.2223668
353.40 0.2264467
353.50 0.2304062
353.60 0.2343448
353.70 0.2386385
353.80 0.2432813
353.90 0.2478601
354.00 0.2518352
354.10 0.2545049
354.20 0.2550231
354.30 0.2530516
354.40 0.2494922
354.50 0.2461798
354.60 0.2445118
354.70 0.2444175
354.80 0.2447452
354.90 0.2444708
355.00 0.2434027
355.10 0.2419526
355.20 0.2405586
355.30 0.2394231
355.40 0.2386444
355.50 0.2382649
355.60 0.2380449
355.70 0.2373128
355.80 0.2352785
355.90 0.2316897
356.00 0.2271325
356.10 0.2225543
356.20 0.2184523
356.30 0.2144762
356.40 0.2098121
356.50 0.2040675
356.60 0.197915
356.70 0.1928517
356.80 0.1901561
356.90 0.1899428
357.00 0.1911732
357.10 0.1924579
357.20 0.1927838
357.30 0.1917189
357.40 0.1892863
357.50 0.1858274
357.60 0.1819024
357.70 0.1780943
357.80 0.1747718
357.90 0.1720065
358.00 0.1697774
358.10 0.1683282
358.20 0.1682621
358.30 0.1701466
358.40 0.1739434
358.50 0.1788041
358.60 0.183398
358.70 0.1864826
358.80 0.1874203
358.90 0.1864871
359.00 0.1848923
359.10 0.1843244
359.20 0.1860221
359.30 0.18991
359.40 0.1945
359.50 0.1978224
359.60 0.1987614
359.70 0.197748
359.80 0.1962713
359.90 0.1956201
360.00 0.1958593
360.10 0.1958323
360.20 0.1941483
360.30 0.1902994
360.40 0.1850875
360.50 0.1802242
360.60 0.1775364
360.70 0.1782402
360.80 0.1823922
360.90 0.1887614
361.00 0.1954345
361.10 0.2009046
361.20 0.2047848
361.30 0.2075128
361.40 0.2094673
361.50 0.2105663
361.60 0.2107895
361.70 0.2107453
361.80 0.2113398
361.90 0.2128573
362.00 0.2146205
362.10 0.2157
362.20 0.2157691
362.30 0.2151968
362.40 0.214601
362.50 0.2144982
362.60 0.2150601
362.70 0.2158178
362.80 0.215745
362.90 0.2140745
363.00 0.2111922
363.10 0.2085223
363.20 0.2073801
363.30 0.2079911
363.40 0.2095875
363.50 0.2112117
363.60 0.2123328
363.70 0.2128983
363.80 0.2130161
363.90 0.2126418
364.00 0.2115017
364.10 0.2092826
364.20 0.2059494
364.30 0.2019208
364.40 0.1979815
364.50 0.1950266
364.60 0.1937156
364.70 0.1941044
364.80 0.1955656
364.90 0.1972631
365.00 0.1989157
365.10 0.201081
365.20 0.2044682
365.30 0.2088824
365.40 0.212967
365.50 0.2151434
365.60 0.2149126
365.70 0.2132334
365.80 0.2115983
365.90 0.2108227
366.00 0.2107389
366.10 0.2108773
366.20 0.2112055
366.30 0.2120642
366.40 0.2135417
366.50 0.2151309
366.60 0.2159954
366.70 0.2155097
366.80 0.2135858
366.90 0.2106251
367.00 0.207309
367.10 0.2044112
367.20 0.2026348
367.30 0.2024314
367.40 0.2038057
367.50 0.2062757
367.60 0.2091088
367.70 0.2117017
367.80 0.2138318
367.90 0.2156163
368.00 0.217264
368.10 0.2188243
368.20 0.2200985
368.30 0.2207373
368.40 0.2204672
368.50 0.2193477
368.60 0.2178786
368.70 0.2167927
368.80 0.2166082
368.90 0.2173133
369.00 0.2185094
369.10 0.2198809
369.20 0.2214115
369.30 0.223086
369.40 0.2245122
369.50 0.2250183
369.60 0.2242346
369.70 0.2225471
369.80 0.2209634
369.90 0.2205412
370.00 0.2218397
370.10 0.2247002
370.20 0.2284257
370.30 0.232156
370.40 0.2351643
370.50 0.2369791
370.60 0.2374371
370.70 0.2368125
370.80 0.235834
370.90 0.2353592
371.00 0.2358183
371.10 0.2368575
371.20 0.2374723
371.30 0.2365277
371.40 0.2333913
371.50 0.2283538
371.60 0.2225859
371.70 0.2175909
371.80 0.2145181
371.90 0.2137902
372.00 0.2151386
372.10 0.2176814
372.20 0.2198624
372.30 0.2197216
372.40 0.2158022
372.50 0.2082922
372.60 0.1993692
372.70 0.1922251
372.80 0.1894402
372.90 0.1918532
373.00 0.1984978
373.10 0.2073052
373.20 0.2159617
373.30 0.2225348
373.40 0.2258605
373.50 0.2256258
373.60 0.2221555
373.70 0.2161022
373.80 0.208308
373.90 0.1998816
374.00 0.1922129
374.10 0.1867318
374.20 0.1845443
374.30 0.186237
374.40 0.1919235
374.50 0.201285
374.60 0.2134525
374.70 0.2268411
374.80 0.2392495
374.90 0.2484189
375.00 0.2528077
375.10 0.2520876
375.20 0.2470898
375.30 0.2393725
375.40 0.2307423
375.50 0.2228749
375.60 0.2169164
375.70 0.213176
375.80 0.2111449
375.90 0.2099183
376.00 0.2088236
376.10 0.2079136
376.20 0.2080726
376.30 0.2106501
376.40 0.216803
376.50 0.2269967
376.60 0.2409941
376.70 0.2580072
376.80 0.2765898
376.90 0.2943333
377.00 0.3080643
377.10 0.3149322
377.20 0.3137125
377.30 0.3052828
377.40 0.2919763
377.50 0.2764794
377.60 0.2610629
377.70 0.2473615
377.80 0.2363149
377.90 0.228119
378.00 0.2223427
378.10 0.2183013
378.20 0.2154568
378.30 0.2135192
378.40 0.2122871
378.50 0.2115946
378.60 0.2114678
378.70 0.2122127
378.80 0.2142831
378.90 0.2181878
379.00 0.2246434
379.10 0.2346641
379.20 0.2491395
379.30 0.2680571
379.40 0.29002
379.50 0.3124485
379.60 0.3321753
379.70 0.3460764
379.80 0.3517782
379.90 0.3483968
380.00 0.3369907
380.10 0.3202525
380.20 0.3014823
380.30 0.2834572
380.40 0.2678467
380.50 0.255255
380.60 0.245549
380.70 0.2381405
380.80 0.2321953
380.90 0.2269955
381.00 0.2222932
381.10 0.2182999
381.20 0.2152607
381.30 0.2130522
381.40 0.211302
381.50 0.2099155
381.60 0.209283
381.70 0.2097835
381.80 0.2110862
381.90 0.2120812
382.00 0.2116873
382.10 0.20978
382.20 0.2073833
382.30 0.2057715
382.40 0.205112
382.50 0.2045168
382.60 0.2019549
382.70 0.1946774
382.80 0.1803797
382.90 0.1586258
383.00 0.1335579
383.10 0.1139732
383.20 0.1093771
383.30 0.1236704
383.40 0.1511639
383.50 0.1792726
383.60 0.1978319
383.70 0.2061545
383.80 0.2102905
383.90 0.2162147
384.00 0.2248472
384.10 0.2325708
384.20 0.2355649
384.30 0.2330395
384.40 0.2291667
384.50 0.2302447
384.60 0.2374379
384.70 0.2445702
384.80 0.2459192
384.90 0.2426915
385.00 0.2402309
385.10 0.2419344
385.20 0.2457591
385.30 0.2464149
385.40 0.2382617
385.50 0.2193505
385.60 0.1950643
385.70 0.173227
385.80 0.1558844
385.90 0.1414071
386.00 0.133752
386.10 0.1415853
386.20 0.1656549
386.30 0.192484
386.40 0.206845
386.50 0.2075108
386.60 0.2047926
386.70 0.2063249
386.80 0.2104842
386.90 0.2136142
387.00 0.2180855
387.10 0.2280982
387.20 0.2409543
387.30 0.2485697
387.40 0.2464672
387.50 0.237354
387.60 0.2270456
387.70 0.2203486
387.80 0.2212178
387.90 0.2318093
388.00 0.2478837
388.10 0.2596078
388.20 0.2594876
388.30 0.2469078
388.40 0.2258459
388.50 0.2013351
388.60 0.1797537
388.70 0.1689534
388.80 0.1739356
388.90 0.1918708
389.00 0.213248
389.10 0.2287632
389.20 0.2348582
389.30 0.2350426
389.40 0.235134
389.50 0.2357732
389.60 0.2315847
389.70 0.2196771
389.80 0.2078688
389.90 0.2097844
390.00 0.2301856
390.10 0.2584608
390.20 0.2785599
390.30 0.2821128
390.40 0.2704363
390.50 0.2492669
390.60 0.2264626
390.70 0.2128531
390.80 0.2177835
390.90 0.2395727
391.00 0.2650344
391.10 0.280418
391.20 0.2829767
391.30 0.2806537
391.40 0.2810232
391.50 0.2849104
391.60 0.288828
391.70 0.2899162
391.80 0.286763
391.90 0.2787801
392.00 0.2668582
392.10 0.2548867
392.20 0.2480108
392.30 0.2485386
392.40 0.2538882
392.50 0.2569999
392.60 0.2495532
392.70 0.2267848
392.80 0.1926195
392.90 0.1587433
393.00 0.1373913
393.10 0.1334731
393.20 0.1424443
393.30 0.1559118
393.40 0.1684789
393.50 0.1802049
393.60 0.1947573
393.70 0.2153544
393.80 0.2402206
393.90 0.2606414
394.00 0.2645478
394.10 0.2461658
394.20 0.2136146
394.30 0.1852305
394.40 0.1767012
394.50 0.1906924
394.60 0.2171301
394.70 0.2426174
394.80 0.260015
394.90 0.2708142
395.00 0.2797777
395.10 0.2889511
395.20 0.2962709
395.30 0.2969505
395.40 0.2860592
395.50 0.2623878
395.60 0.2317379
395.70 0.2044889
395.80 0.1874369
395.90 0.1796151
396.00 0.1764311
396.10 0.1742335
396.20 0.1711036
396.30 0.166861
396.40 0.1634227
396.50 0.1627839
396.60 0.162408
396.70 0.1570234
396.80 0.147522
396.90 0.1448635
397.00 0.1622894
397.10 0.2027677
397.20 0.2547223
397.30 0.3002066
397.40 0.3276149
397.50 0.3380925
397.60 0.3412803
397.70 0.3446845
397.80 0.3482624
397.90 0.3485123
398.00 0.3441624
398.10 0.3368697
398.20 0.3287555
398.30 0.3224386
398.40 0.3231497
398.50 0.3353427
398.60 0.3554347
398.70 0.3719724
398.80 0.3750376
398.90 0.3655479
399.00 0.3539062
399.10 0.3504298
399.20 0.3576353
399.30 0.3692001
399.40 0.3746799
399.50 0.3676039
399.60 0.3516874
399.70 0.3381919
399.80 0.3359507
399.90 0.343473
400.00 0.3521762
400.10 0.3554969
400.20 0.3530122
400.30 0.347785
400.40 0.3433035
400.50 0.3438047
400.60 0.3537977
400.70 0.3730775
400.80 0.3932131
400.90 0.4041807
401.00 0.4046723
401.10 0.4024523
401.20 0.4040303
401.30 0.408041
401.40 0.4102106
401.50 0.4107127
401.60 0.4126224
401.70 0.415603
401.80 0.4160815
401.90 0.4119846
402.00 0.4028465
402.10 0.3867808
402.20 0.3618378
402.30 0.3317798
402.40 0.3081406
402.50 0.3021347
402.60 0.3150806
402.70 0.337996
402.80 0.3590358
402.90 0.3705777
403.00 0.370804
403.10 0.3612285
403.20 0.3445468
403.30 0.3256306
403.40 0.3127579
403.50 0.3148005
403.60 0.3336167
403.70 0.3599637
403.80 0.3802797
403.90 0.388778
404.00 0.3905378
404.10 0.392232
404.20 0.3935905
404.30 0.3892523
404.40 0.3767147
404.50 0.3599452
404.60 0.3466842
404.70 0.345132
404.80 0.3609146
404.90 0.3926145
405.00 0.4295974
405.10 0.4579506
405.20 0.4712978
405.30 0.4741286
405.40 0.4738026
405.50 0.4722844
405.60 0.4680137
405.70 0.4616781
405.80 0.4561682
405.90 0.4519948
406.00 0.4464343
406.10 0.4372478
406.20 0.4249982
406.30 0.4124635
406.40 0.4031524
406.50 0.4004238
406.60 0.4057829
406.70 0.4177329
406.80 0.4328748
406.90 0.4459149
407.00 0.4500162
407.10 0.4413773
407.20 0.4251975
407.30 0.4136601
407.40 0.4136867
407.50 0.4195362
407.60 0.4208747
407.70 0.4161186
407.80 0.4122104
407.90 0.4132671
408.00 0.4157265
408.10 0.4155095
408.20 0.4149441
408.30 0.4197173
408.40 0.4327526
408.50 0.4526545
408.60 0.4753858
408.70 0.4946605
408.80 0.5033274
408.90 0.4986755
409.00 0.4864438
409.10 0.4765105
409.20 0.4729727
409.30 0.470211
409.40 0.4599512
409.50 0.4408801
409.60 0.4206042
409.70 0.4085709
409.80 0.4078535
409.90 0.4133417
410.00 0.4162873
410.10 0.4117793
410.20 0.402707
410.30 0.3960246
410.40 0.3964582
410.50 0.4041814
410.60 0.416003
410.70 0.4269285
410.80 0.4314419
410.90 0.426631
411.00 0.4151762
411.10 0.4036245
411.20 0.3965156
411.30 0.3925452
411.40 0.3869208
411.50 0.3780348
411.60 0.3722151
411.70 0.379623
411.80 0.4035176
411.90 0.4345026
412.00 0.4579356
412.10 0.4670867
412.20 0.4679363
412.30 0.4717738
412.40 0.48344
412.50 0.4967267
412.60 0.5001705
412.70 0.4869208
412.80 0.4602032
412.90 0.4304186
413.00 0.4076721
413.10 0.3970109
413.20 0.398641
413.30 0.410131
413.40 0.4284378
413.50 0.4505834
413.60 0.4732152
413.70 0.4936036
413.80 0.5108225
413.90 0.5239231
414.00 0.5280745
414.10 0.5148747
414.20 0.4815709
414.30 0.4394831
414.40 0.4090578
414.50 0.4043082
414.60 0.4226313
414.70 0.4493391
414.80 0.4702489
414.90 0.4800801
415.00 0.4821501
415.10 0.4823415
415.20 0.4822285
415.30 0.4786945
415.40 0.4711166
415.50 0.465878
415.60 0.4709773
415.70 0.486223
415.80 0.5020299
415.90 0.5095472
416.00 0.5084484
416.10 0.5047091
416.20 0.5030695
416.30 0.5031447
