# Version 2.1 - nm, norm@500 to 1, cut digits
# Wavelength(nm)  Flambda(ergs/cm^s/s/nm)
300.00 0.01073736
300.10 0.0142726
300.20 0.01642534
300.30 0.01731525
300.40 0.01754798
300.50 0.01761595
300.60 0.01768391
300.70 0.01775256
300.80 0.01782473
300.90 0.01790579
301.00 0.01800169
301.10 0.01811506
301.20 0.01824326
301.30 0.01838037
301.40 0.01852099
301.50 0.01866231
301.60 0.01880363
301.70 0.01894495
301.80 0.01908627
301.90 0.01922759
302.00 0.01936891
302.10 0.01951023
302.20 0.01965155
302.30 0.01979287
302.40 0.01993419
302.50 0.02007551
302.60 0.02021683
302.70 0.02035868
302.80 0.02050319
302.90 0.02065447
303.00 0.02081701
303.10 0.02099282
303.20 0.02117988
303.30 0.02137371
303.40 0.0215702
303.50 0.02176723
303.60 0.02196425
303.70 0.02216128
303.80 0.0223583
303.90 0.02255533
304.00 0.02275235
304.10 0.02294938
304.20 0.0231464
304.30 0.02334343
304.40 0.02354046
304.50 0.02373748
304.60 0.0239345
304.70 0.0241299
304.80 0.02431715
304.90 0.02448372
305.00 0.02461583
305.10 0.02470739
305.20 0.02476449
305.30 0.02480092
305.40 0.02482919
305.50 0.02485584
305.60 0.02488249
305.70 0.02490914
305.80 0.02493578
305.90 0.02496243
306.00 0.02498908
306.10 0.02501573
306.20 0.02504237
306.30 0.02506902
306.40 0.02509567
306.50 0.02512232
306.60 0.02514896
306.70 0.02517561
306.80 0.02520228
306.90 0.025229
307.00 0.02525578
307.10 0.02528266
307.20 0.02530961
307.30 0.02533661
307.40 0.02536362
307.50 0.02539064
307.60 0.02541766
307.70 0.02544467
307.80 0.02547169
307.90 0.02549871
308.00 0.02552572
308.10 0.02555274
308.20 0.02557976
308.30 0.02560678
308.40 0.02563379
308.50 0.02566081
308.60 0.02568783
308.70 0.02571893
308.80 0.02577042
308.90 0.02587366
309.00 0.02606312
309.10 0.02635411
309.20 0.02673131
309.30 0.02716027
309.40 0.02760962
309.50 0.02806305
309.60 0.02851648
309.70 0.02896991
309.80 0.02942334
309.90 0.02987677
310.00 0.0303302
310.10 0.03078363
310.20 0.03123706
310.30 0.03169049
310.40 0.03214392
310.50 0.03259735
310.60 0.03305078
310.70 0.0335001
310.80 0.03392894
310.90 0.03430574
311.00 0.03459587
311.10 0.03478394
311.20 0.03488534
311.30 0.03493471
311.40 0.03496358
311.50 0.03498835
311.60 0.03501312
311.70 0.0350379
311.80 0.03506267
311.90 0.03508744
312.00 0.03511221
312.10 0.03513698
312.20 0.03516175
312.30 0.03518652
312.40 0.03521129
312.50 0.03523606
312.60 0.03526084
312.70 0.03529068
312.80 0.03534583
312.90 0.03546524
313.00 0.03569169
313.10 0.03604419
313.20 0.03650375
313.30 0.03702756
313.40 0.03757667
313.50 0.03813086
313.60 0.03868505
313.70 0.03923924
313.80 0.03979343
313.90 0.04034761
314.00 0.0409018
314.10 0.04145599
314.20 0.04201018
314.30 0.04256437
314.40 0.04311856
314.50 0.04367275
314.60 0.04422694
314.70 0.04478465
314.80 0.04535999
314.90 0.04598005
315.00 0.04667463
315.10 0.04745696
315.20 0.04831379
315.30 0.04921536
315.40 0.05013455
315.50 0.05105726
315.60 0.05197997
315.70 0.05290269
315.80 0.0538254
315.90 0.05474812
316.00 0.05567083
316.10 0.05659354
316.20 0.05751626
316.30 0.05843897
316.40 0.05936168
316.50 0.0602844
316.60 0.06120711
316.70 0.06211685
316.80 0.06296183
316.90 0.06364239
317.00 0.06404906
317.10 0.06413319
317.20 0.06394342
317.30 0.06358923
317.40 0.06317028
317.50 0.06273836
317.60 0.06230644
317.70 0.06187452
317.80 0.0614426
317.90 0.06101068
318.00 0.06057876
318.10 0.06014684
318.20 0.05971492
318.30 0.05928299
318.40 0.05885107
318.50 0.05841915
318.60 0.05798723
318.70 0.05756525
318.80 0.05719283
318.90 0.05694627
319.00 0.05690938
319.10 0.05711939
319.20 0.05753906
319.30 0.05808459
319.40 0.0586797
319.50 0.05928474
319.60 0.05988977
319.70 0.06049481
319.80 0.06109985
319.90 0.06170489
320.00 0.06230992
320.10 0.06291496
320.20 0.06352
320.30 0.06412504
320.40 0.06473007
320.50 0.06533511
320.60 0.06594015
320.70 0.06654151
320.80 0.06712454
320.90 0.06766102
321.00 0.06811996
321.10 0.06848758
321.20 0.06877765
321.30 0.06902118
321.40 0.06924637
321.50 0.06946789
321.60 0.06968941
321.70 0.06991092
321.80 0.07013244
321.90 0.07035396
322.00 0.07057548
322.10 0.070797
322.20 0.07101851
322.30 0.07124003
322.40 0.07146155
322.50 0.07168307
322.60 0.07190459
322.70 0.07213953
322.80 0.07244143
322.90 0.07291336
323.00 0.07366854
323.10 0.07475726
323.20 0.07612923
323.30 0.07767123
323.40 0.0792802
323.50 0.08090258
323.60 0.08252496
323.70 0.08414734
323.80 0.08576972
323.90 0.08739211
324.00 0.08901449
324.10 0.09063687
324.20 0.09225926
324.30 0.09388164
324.40 0.09550402
324.50 0.09712641
324.60 0.09874879
324.70 0.100369
324.80 0.1019783
324.90 0.10356
325.00 0.1050957
325.10 0.1065772
325.20 0.1080127
325.30 0.1094206
325.40 0.1108176
325.50 0.1122125
325.60 0.1136073
325.70 0.1150021
325.80 0.1163969
325.90 0.1177918
326.00 0.1191866
326.10 0.1205814
326.20 0.1219762
326.30 0.1233711
326.40 0.1247659
326.50 0.1261607
326.60 0.1275555
326.70 0.1289551
326.80 0.130378
326.90 0.1318605
327.00 0.1334422
327.10 0.1351406
327.20 0.1369383
327.30 0.1387954
327.40 0.140676
327.50 0.1425613
327.60 0.1444466
327.70 0.1463318
327.80 0.1482171
327.90 0.1501024
328.00 0.1519877
328.10 0.153873
328.20 0.1557583
328.30 0.1576435
328.40 0.1595288
328.50 0.1614141
328.60 0.1632994
328.70 0.1651571
328.80 0.1668773
328.90 0.1682481
329.00 0.1690372
329.10 0.169141
329.20 0.168663
329.30 0.1678357
329.40 0.1668708
329.50 0.1658784
329.60 0.164886
329.70 0.1638936
329.80 0.1629012
329.90 0.1619088
330.00 0.1609163
330.10 0.1599239
330.20 0.1589315
330.30 0.1579391
330.40 0.1569467
330.50 0.1559542
330.60 0.1549618
330.70 0.1539899
330.80 0.1531199
330.90 0.1525091
331.00 0.1523299
331.10 0.152659
331.20 0.1534196
331.30 0.1544394
331.40 0.1555613
331.50 0.1567036
331.60 0.1578458
331.70 0.1589881
331.80 0.1601304
331.90 0.1612727
332.00 0.162415
332.10 0.1635573
332.20 0.1646995
332.30 0.1658418
332.40 0.1669841
332.50 0.1681264
332.60 0.1692687
332.70 0.170398
332.80 0.1714627
332.90 0.1723634
333.00 0.1729908
333.10 0.1732964
333.20 0.1733287
333.30 0.173197
333.40 0.1730006
333.50 0.1727913
333.60 0.1725821
333.70 0.1723728
333.80 0.1721635
333.90 0.1719542
334.00 0.1717449
334.10 0.1715356
334.20 0.1713263
334.30 0.171117
334.40 0.1709077
334.50 0.1706985
334.60 0.1706634
334.70 0.1711966
334.80 0.1724501
334.90 0.1737234
335.00 0.1736833
335.10 0.1719662
335.20 0.1706708
335.30 0.1737199
335.40 0.1838401
335.50 0.1994828
335.60 0.2146587
335.70 0.2224214
335.80 0.2193479
335.90 0.2072335
336.00 0.1911773
336.10 0.1764286
336.20 0.1666487
336.30 0.1633721
336.40 0.1653558
336.50 0.168733
336.60 0.1693301
336.70 0.1661296
336.80 0.1625653
336.90 0.1638291
337.00 0.172423
337.10 0.1857194
337.20 0.1974649
337.30 0.2020772
337.40 0.1985645
337.50 0.1911441
337.60 0.1860173
337.70 0.1867697
337.80 0.1922652
337.90 0.1987287
338.00 0.2032734
338.10 0.2051053
338.20 0.2038057
338.30 0.198003
338.40 0.1872302
338.50 0.1746711
338.60 0.1666661
338.70 0.1681567
338.80 0.1780738
338.90 0.1896792
339.00 0.1959796
339.10 0.1954539
339.20 0.1929897
339.30 0.1950771
339.40 0.2038318
339.50 0.2156246
339.60 0.2250059
339.70 0.2292842
339.80 0.2292144
339.90 0.2262989
340.00 0.2211359
340.10 0.2143433
340.20 0.2073495
340.30 0.2012391
340.40 0.1952819
340.50 0.1876977
340.60 0.1780579
340.70 0.1682768
340.80 0.1610952
340.90 0.1580721
341.00 0.1591032
341.10 0.1632366
341.20 0.1693756
341.30 0.1762315
341.40 0.1822859
341.50 0.1863781
341.60 0.1883935
341.70 0.1893146
341.80 0.1904736
341.90 0.1925689
342.00 0.195045
342.10 0.1962021
342.20 0.19423
342.30 0.1887303
342.40 0.1815362
342.50 0.1757837
342.60 0.173805
342.70 0.175674
342.80 0.1795103
342.90 0.1829635
343.00 0.1846596
343.10 0.1848176
343.20 0.1847382
343.30 0.1855391
343.40 0.1871808
343.50 0.1886973
343.60 0.1892184
343.70 0.1885051
343.80 0.1867428
343.90 0.1843676
344.00 0.1821766
344.10 0.181092
344.20 0.1813545
344.30 0.1821171
344.40 0.1821887
344.50 0.1811741
344.60 0.1797946
344.70 0.1792561
344.80 0.18048
344.90 0.183792
345.00 0.1890194
345.10 0.1956222
345.20 0.2027206
345.30 0.2090965
345.40 0.213389
345.50 0.2147495
345.60 0.2135507
345.70 0.2113243
345.80 0.2097136
345.90 0.2093246
346.00 0.2094551
346.10 0.2087085
346.20 0.2059696
346.30 0.2012813
346.40 0.1961275
346.50 0.1925696
346.60 0.1916076
346.70 0.1923111
346.80 0.1926844
346.90 0.191291
347.00 0.1879941
347.10 0.1836819
347.20 0.1798275
347.30 0.178074
347.40 0.179466
347.50 0.1836265
347.60 0.1889325
347.70 0.1937628
347.80 0.1975819
347.90 0.2009241
348.00 0.2045504
348.10 0.208597
348.20 0.2123015
348.30 0.2145065
348.40 0.2145981
348.50 0.213043
348.60 0.210908
348.70 0.2088867
348.80 0.2069736
348.90 0.2049451
349.00 0.2028125
349.10 0.2007654
349.20 0.1989734
349.30 0.1976805
349.40 0.197324
349.50 0.1981831
349.60 0.199832
349.70 0.2012049
349.80 0.2015388
349.90 0.2014463
350.00 0.2028423
350.10 0.2074357
350.20 0.2150907
350.30 0.2236561
350.40 0.2304321
350.50 0.2338777
350.60 0.2341178
350.70 0.2322218
350.80 0.2292939
350.90 0.2259518
351.00 0.2220864
351.10 0.2169126
351.20 0.2095833
351.30 0.2002789
351.40 0.1908029
351.50 0.1837151
351.60 0.1805177
351.70 0.1805963
351.80 0.1819336
351.90 0.1827908
352.00 0.1826789
352.10 0.1819505
352.20 0.1810158
352.30 0.1802301
352.40 0.180357
352.50 0.182795
352.60 0.1888104
352.70 0.198227
352.80 0.2089262
352.90 0.2180292
353.00 0.2240169
353.10 0.2277002
353.20 0.2309767
353.30 0.2348981
353.40 0.2392079
353.50 0.2433906
353.60 0.2475511
353.70 0.2520868
353.80 0.2569912
353.90 0.261828
354.00 0.266027
354.10 0.2688471
354.20 0.2693945
354.30 0.267312
354.40 0.2635522
354.50 0.2600532
354.60 0.2582912
354.70 0.2581916
354.80 0.2585377
354.90 0.2582477
355.00 0.2571195
355.10 0.2555877
355.20 0.2541151
355.30 0.2529157
355.40 0.2520931
355.50 0.2516922
355.60 0.2514596
355.70 0.2506863
355.80 0.2485373
355.90 0.2447463
356.00 0.2399323
356.10 0.2350961
356.20 0.230763
356.30 0.2265628
356.40 0.2216359
356.50 0.2155677
356.60 0.2090685
356.70 0.20372
356.80 0.2008725
356.90 0.2006471
357.00 0.2019467
357.10 0.2033037
357.20 0.2036478
357.30 0.2025229
357.40 0.1999533
357.50 0.1962995
357.60 0.1921534
357.70 0.1881308
357.80 0.1846211
357.90 0.1817
358.00 0.1793452
358.10 0.1778144
358.20 0.1777447
358.30 0.1797353
358.40 0.183746
358.50 0.1888804
358.60 0.1937331
358.70 0.1969914
358.80 0.197982
358.90 0.1969964
359.00 0.1953118
359.10 0.194712
359.20 0.1965054
359.30 0.2006123
359.40 0.2054608
359.50 0.2089703
359.60 0.2099623
359.70 0.2088918
359.80 0.2073319
359.90 0.2066441
360.00 0.2068967
360.10 0.2068681
360.20 0.2050892
360.30 0.2010235
360.40 0.1955181
360.50 0.1903808
360.60 0.1875417
360.70 0.1882852
360.80 0.192671
360.90 0.199399
361.00 0.2064481
361.10 0.2122263
361.20 0.2163252
361.30 0.2192069
361.40 0.2212715
361.50 0.2224325
361.60 0.2226684
361.70 0.2226217
361.80 0.2232497
361.90 0.2248527
362.00 0.2267152
362.10 0.2278556
362.20 0.2279286
362.30 0.227324
362.40 0.2266947
362.50 0.2265861
362.60 0.2271797
362.70 0.22798
362.80 0.227903
362.90 0.2261385
363.00 0.2230938
363.10 0.2202736
363.20 0.219067
363.30 0.2197124
363.40 0.2213987
363.50 0.2231144
363.60 0.2242986
363.70 0.224896
363.80 0.2250203
363.90 0.224625
364.00 0.2234206
364.10 0.2210765
364.20 0.2175555
364.30 0.2132999
364.40 0.2091387
364.50 0.2060174
364.60 0.2046325
364.70 0.2050431
364.80 0.2065867
364.90 0.2083799
365.00 0.2101256
365.10 0.2124129
365.20 0.2159909
365.30 0.2206537
365.40 0.2249684
365.50 0.2272674
365.60 0.2270237
365.70 0.22525
365.80 0.2235228
365.90 0.2227035
366.00 0.222615
366.10 0.2227613
366.20 0.2231079
366.30 0.2240149
366.40 0.2255757
366.50 0.2272544
366.60 0.2281675
366.70 0.2276544
366.80 0.2256221
366.90 0.2224947
367.00 0.2189918
367.10 0.2159308
367.20 0.2140543
367.30 0.2138394
367.40 0.2152911
367.50 0.2179003
367.60 0.220893
367.70 0.223632
367.80 0.2258821
367.90 0.2277671
368.00 0.2295077
368.10 0.2311559
368.20 0.2325019
368.30 0.2331767
368.40 0.2328914
368.50 0.2317089
368.60 0.2301571
368.70 0.2290099
368.80 0.2288151
368.90 0.2295599
369.00 0.2308234
369.10 0.2322722
369.20 0.2338889
369.30 0.2356578
369.40 0.2371643
369.50 0.2376989
369.60 0.2368711
369.70 0.2350887
369.80 0.2334157
369.90 0.2329698
370.00 0.2343415
370.10 0.2373632
370.20 0.2412985
370.30 0.2452389
370.40 0.2484167
370.50 0.2503337
370.60 0.2508175
370.70 0.2501578
370.80 0.2491243
370.90 0.2486227
371.00 0.2491077
371.10 0.2502053
371.20 0.2508547
371.30 0.2498568
371.40 0.2465437
371.50 0.2412224
371.60 0.2351297
371.70 0.2298533
371.80 0.2266074
371.90 0.2258384
372.00 0.2272626
372.10 0.2299486
372.20 0.2322523
372.30 0.2321035
372.40 0.2279633
372.50 0.2200303
372.60 0.2106047
372.70 0.2030583
372.80 0.2001166
372.90 0.2026655
373.00 0.2096843
373.10 0.2189878
373.20 0.2281318
373.30 0.2350752
373.40 0.2385882
373.50 0.2383403
373.60 0.2346745
373.70 0.2282803
373.80 0.220047
373.90 0.2111459
374.00 0.2030452
374.10 0.1972555
374.20 0.1949447
374.30 0.1967329
374.40 0.2027398
374.50 0.2126287
374.60 0.2254816
374.70 0.2396244
374.80 0.2527318
374.90 0.2624178
375.00 0.2670538
375.10 0.2662932
375.20 0.261014
375.30 0.252862
375.40 0.2437456
375.50 0.2354351
375.60 0.2291409
375.70 0.2251897
375.80 0.223044
375.90 0.2217482
376.00 0.2205919
376.10 0.2196307
376.20 0.2197988
376.30 0.2225217
376.40 0.2290213
376.50 0.2397895
376.60 0.2545755
376.70 0.2725472
376.80 0.2921766
376.90 0.3109196
377.00 0.3254241
377.10 0.3326788
377.20 0.3313906
377.30 0.322486
377.40 0.30843
377.50 0.2920601
377.60 0.2757751
377.70 0.2613017
377.80 0.2496327
377.90 0.2409749
378.00 0.234873
378.10 0.2306037
378.20 0.2275989
378.30 0.225552
378.40 0.2242505
378.50 0.223519
378.60 0.2233852
378.70 0.2241721
378.80 0.2263593
378.90 0.2304841
379.00 0.2373037
379.10 0.247889
379.20 0.2631802
379.30 0.2831636
379.40 0.3063638
379.50 0.3300558
379.60 0.350894
379.70 0.3655781
379.80 0.3716011
379.90 0.3680293
380.00 0.3559808
380.10 0.3382997
380.20 0.3184721
380.30 0.2994314
380.40 0.2829414
380.50 0.2696401
380.60 0.2593871
380.70 0.251561
380.80 0.2452807
380.90 0.2397879
381.00 0.2348205
381.10 0.2306022
381.20 0.2273917
381.30 0.2250587
381.40 0.2232099
381.50 0.2217453
381.60 0.2210773
381.70 0.2216066
381.80 0.2229838
381.90 0.2240367
382.00 0.2236235
382.10 0.2216203
382.20 0.2190719
382.30 0.2162946
382.40 0.2136868
382.50 0.2163311
382.60 0.2297526
382.70 0.2471738
382.80 0.2443449
382.90 0.198144
383.00 0.1176935
383.10 0.04901142
383.20 0.03973594
383.30 0.09873174
383.40 0.1906915
383.50 0.2671643
383.60 0.3050308
383.70 0.3159392
383.80 0.3229676
383.90 0.3371638
384.00 0.3525838
384.10 0.3553347
384.20 0.3354444
384.30 0.2923696
384.40 0.2407381
384.50 0.2056698
384.60 0.200633
384.70 0.2150625
384.80 0.2326482
384.90 0.2505936
385.00 0.2738108
385.10 0.2992931
385.20 0.311796
385.30 0.299109
385.40 0.2609114
385.50 0.2083876
385.60 0.1605855
385.70 0.1290566
385.80 0.1064253
385.90 0.08119083
386.00 0.06428267
386.10 0.08213878
386.20 0.1384605
386.30 0.1956575
386.40 0.2096923
386.50 0.1778757
386.60 0.1365275
386.70 0.1185689
386.80 0.1246457
386.90 0.139196
387.00 0.1611458
387.10 0.2025456
387.20 0.2618496
387.30 0.3161703
387.40 0.3438522
387.50 0.3438726
387.60 0.3321751
387.70 0.3267911
387.80 0.3384886
387.90 0.3649921
388.00 0.3862208
388.10 0.3775965
388.20 0.333707
388.30 0.2708713
388.40 0.2087863
388.50 0.1562723
388.60 0.1178194
388.70 0.1029703
388.80 0.1215465
388.90 0.170409
389.00 0.2285316
389.10 0.2682668
389.20 0.274362
389.30 0.2594328
389.40 0.2514989
389.50 0.2595935
389.60 0.2608191
389.70 0.2320543
389.80 0.1890945
389.90 0.1776847
390.00 0.2227345
390.10 0.2989228
390.20 0.3579788
390.30 0.3707819
390.40 0.3374925
390.50 0.2726035
390.60 0.1959692
390.70 0.1375298
390.80 0.1279714
390.90 0.1717393
391.00 0.2382597
391.10 0.285607
391.20 0.2947903
391.30 0.2787302
391.40 0.2615242
391.50 0.2583684
391.60 0.2705448
391.70 0.2892378
391.80 0.3018763
391.90 0.3018811
392.00 0.2946526
392.10 0.2941304
392.20 0.3091954
392.30 0.3341537
392.40 0.3536207
392.50 0.3505331
392.60 0.3128286
392.70 0.2393171
392.80 0.1480062
392.90 0.07275131
393.00 0.04347772
393.10 0.06306273
393.20 0.1035821
393.30 0.1311132
393.40 0.1338408
393.50 0.1271498
393.60 0.1367442
393.70 0.1778582
393.80 0.2436081
393.90 0.3068238
394.00 0.3340364
394.10 0.3093412
394.20 0.2493932
394.30 0.1912203
394.40 0.1655103
394.50 0.180354
394.60 0.2245767
394.70 0.2789689
394.80 0.3244608
394.90 0.3484501
395.00 0.3486982
395.10 0.3332622
395.20 0.3133269
395.30 0.2919762
395.40 0.2620768
395.50 0.2183625
395.60 0.1698
395.70 0.1337408
395.80 0.1179338
395.90 0.1171717
396.00 0.1264863
396.10 0.1443749
396.20 0.1648757
396.30 0.1777384
396.40 0.1797532
396.50 0.177321
396.60 0.1715854
396.70 0.1545597
396.80 0.1279331
396.90 0.1154738
397.00 0.1466472
397.10 0.2249957
397.20 0.3181589
397.30 0.3846414
397.40 0.4079511
397.50 0.4046937
397.60 0.4021985
397.70 0.4100315
397.80 0.4178806
397.90 0.4166665
398.00 0.4099623
398.10 0.4042135
398.20 0.396647
398.30 0.3810417
398.40 0.3642331
398.50 0.3620454
398.60 0.3769115
398.70 0.3914137
398.80 0.3874724
398.90 0.3683499
399.00 0.3541886
399.10 0.3592043
399.20 0.3797676
399.30 0.4007973
399.40 0.4078066
399.50 0.3959148
399.60 0.3743797
399.70 0.362238
399.80 0.3730494
399.90 0.398873
400.00 0.4142377
400.10 0.3988474
400.20 0.3557276
400.30 0.3095744
400.40 0.2898546
400.50 0.3142882
400.60 0.3798075
400.70 0.4603438
400.80 0.5163846
400.90 0.5213342
401.00 0.4837953
401.10 0.4383856
401.20 0.4128303
401.30 0.4087812
401.40 0.4142634
401.50 0.4251305
401.60 0.4441504
401.70 0.4660714
401.80 0.4781135
401.90 0.4720206
402.00 0.4470725
402.10 0.4038553
402.20 0.343999
402.30 0.2782381
402.40 0.2283955
402.50 0.211569
402.60 0.2272601
402.70 0.2626959
402.80 0.3053483
402.90 0.3486001
403.00 0.3872519
403.10 0.4124363
403.20 0.4135843
403.30 0.3884343
403.40 0.3517818
403.50 0.3288778
403.60 0.3335309
403.70 0.3544258
403.80 0.368684
403.90 0.368867
404.00 0.3684795
404.10 0.3798626
404.20 0.3965509
404.30 0.4014275
404.40 0.3876826
404.50 0.3648238
404.60 0.3461743
404.70 0.3413584
404.80 0.3583923
404.90 0.4011515
405.00 0.4597091
405.10 0.5109865
405.20 0.5373989
405.30 0.5411282
405.40 0.5348205
405.50 0.5247883
405.60 0.5109685
405.70 0.4950107
405.80 0.4808586
405.90 0.4690303
406.00 0.4574882
406.10 0.4477378
406.20 0.4438162
406.30 0.4457137
406.40 0.4474785
406.50 0.4436511
406.60 0.435101
406.70 0.4292223
406.80 0.4353578
406.90 0.453578
407.00 0.4693289
407.10 0.4641251
407.20 0.4348856
407.30 0.3993702
407.40 0.3777531
407.50 0.376405
407.60 0.3923371
407.70 0.424213
407.80 0.4666307
407.90 0.5015747
408.00 0.5100469
408.10 0.4928147
408.20 0.4704878
408.30 0.4622727
408.40 0.4731958
408.50 0.5001476
408.60 0.5384034
408.70 0.5766455
408.80 0.5958698
408.90 0.5837888
409.00 0.5494806
409.10 0.5163118
409.20 0.4987249
409.30 0.4912367
409.40 0.481457
409.50 0.4664992
409.60 0.4541632
409.70 0.452728
409.80 0.4642204
409.90 0.48432
410.00 0.5020365
410.10 0.5040613
410.20 0.4855847
410.30 0.4566768
410.40 0.4372269
410.50 0.442924
410.60 0.471612
410.70 0.5018362
410.80 0.5080176
410.90 0.4813611
411.00 0.4366867
411.10 0.3975609
411.20 0.3749449
411.30 0.3611889
411.40 0.3415916
411.50 0.3114717
411.60 0.2865916
411.70 0.2939617
411.80 0.3464741
411.90 0.4256814
412.00 0.4946705
412.10 0.5297593
412.20 0.5370815
412.30 0.5387492
412.40 0.5466151
412.50 0.552543
412.60 0.5405942
412.70 0.5041678
412.80 0.4517488
412.90 0.4010636
413.00 0.3699261
413.10 0.3688534
413.20 0.3971559
413.30 0.4432579
413.40 0.4905654
413.50 0.5250927
413.60 0.5399634
413.70 0.5397492
413.80 0.5400016
413.90 0.5537914
414.00 0.5748722
414.10 0.5776459
414.20 0.5429246
414.30 0.4824977
414.40 0.4320704
414.50 0.4209101
414.60 0.4492403
414.70 0.4916292
414.80 0.5189407
414.90 0.519748
415.00 0.5051556
415.10 0.4938206
415.20 0.4901679
415.30 0.4820947
415.40 0.4621884
415.50 0.4421286
415.60 0.4401508
415.70 0.4582886
415.80 0.4797803
415.90 0.4893796
416.00 0.4870406
416.10 0.4835289
416.20 0.4878954
416.30 0.4991565
