# Version 2.1 - nm, norm@500 to 1, cut digits
# Wavelength(nm)  Flambda(ergs/cm^s/s/nm)
300.00 0.01096644
300.10 0.014577
300.20 0.01677566
300.30 0.01768461
300.40 0.01792237
300.50 0.01799185
300.60 0.01806129
300.70 0.01813143
300.80 0.01820514
300.90 0.01828794
301.00 0.01838588
301.10 0.01850167
301.20 0.01863261
301.30 0.01877264
301.40 0.01891626
301.50 0.0190606
301.60 0.01920493
301.70 0.01934927
301.80 0.0194936
301.90 0.01963794
302.00 0.01978227
302.10 0.01992661
302.20 0.02007094
302.30 0.02021528
302.40 0.02035962
302.50 0.02050395
302.60 0.02064829
302.70 0.02079317
302.80 0.02094077
302.90 0.02109528
303.00 0.02126129
303.10 0.02144084
303.20 0.0216319
303.30 0.02182987
303.40 0.02203055
303.50 0.02223178
303.60 0.02243301
303.70 0.02263424
303.80 0.02283547
303.90 0.0230367
304.00 0.02323793
304.10 0.02343916
304.20 0.02364039
304.30 0.02384162
304.40 0.02404285
304.50 0.02424408
304.60 0.02444531
304.70 0.02464487
304.80 0.02483611
304.90 0.02500623
305.00 0.02514117
305.10 0.02523468
305.20 0.025293
305.30 0.02533021
305.40 0.02535909
305.50 0.02538631
305.60 0.02541352
305.70 0.02544074
305.80 0.02546796
305.90 0.02549517
306.00 0.02552239
306.10 0.0255496
306.20 0.02557682
306.30 0.02560404
306.40 0.02563125
306.50 0.02565847
306.60 0.02568568
306.70 0.0257129
306.80 0.02574014
306.90 0.02576743
307.00 0.02579479
307.10 0.02582224
307.20 0.02584976
307.30 0.02587733
307.40 0.02590492
307.50 0.02593252
307.60 0.02596011
307.70 0.02598771
307.80 0.0260153
307.90 0.02604289
308.00 0.02607049
308.10 0.02609808
308.20 0.02612567
308.30 0.02615327
308.40 0.02618086
308.50 0.02620846
308.60 0.02623606
308.70 0.02626783
308.80 0.02632042
308.90 0.02642587
309.00 0.02661937
309.10 0.02691657
309.20 0.02730182
309.30 0.02773993
309.40 0.02819886
309.50 0.02866196
309.60 0.02912507
309.70 0.02958818
309.80 0.03005128
309.90 0.03051439
310.00 0.0309775
310.10 0.0314406
310.20 0.03190371
310.30 0.03236682
310.40 0.03282992
310.50 0.03329303
310.60 0.03375613
310.70 0.03421504
310.80 0.03465302
310.90 0.03503786
311.00 0.03533418
311.10 0.03552627
311.20 0.03562984
311.30 0.03568026
311.40 0.03570976
311.50 0.03573506
311.60 0.03576036
311.70 0.03578566
311.80 0.03581096
311.90 0.03583626
312.00 0.03586156
312.10 0.03588686
312.20 0.03591216
312.30 0.03593746
312.40 0.03596276
312.50 0.03598806
312.60 0.03601337
312.70 0.03604385
312.80 0.03610019
312.90 0.03622215
313.00 0.03645344
313.10 0.03681346
313.20 0.03728282
313.30 0.0378178
313.40 0.03837863
313.50 0.03894464
313.60 0.03951066
313.70 0.04007667
313.80 0.04064269
313.90 0.0412087
314.00 0.04177472
314.10 0.04234073
314.20 0.04290675
314.30 0.04347277
314.40 0.04403878
314.50 0.0446048
314.60 0.04517082
314.70 0.04574044
314.80 0.04632806
314.90 0.04696136
315.00 0.04767077
315.10 0.04846979
315.20 0.04934491
315.30 0.05026571
315.40 0.05120451
315.50 0.05214691
315.60 0.05308931
315.70 0.05403172
315.80 0.05497413
315.90 0.05591653
316.00 0.05685894
316.10 0.05780135
316.20 0.05874375
316.30 0.05968616
316.40 0.06062856
316.50 0.06157096
316.60 0.06251336
316.70 0.0634425
316.80 0.0643055
316.90 0.06500057
317.00 0.0654159
317.10 0.06550184
317.20 0.06530803
317.30 0.0649463
317.40 0.06451843
317.50 0.0640773
317.60 0.06363617
317.70 0.06319503
317.80 0.06275389
317.90 0.06231275
318.00 0.06187161
318.10 0.06143047
318.20 0.06098933
318.30 0.0605482
318.40 0.06010706
318.50 0.05966592
318.60 0.05922479
318.70 0.05879381
318.80 0.05841345
318.90 0.05816165
319.00 0.05812398
319.10 0.05833846
319.20 0.05876708
319.30 0.05932424
319.40 0.05993204
319.50 0.06054998
319.60 0.06116792
319.70 0.06178587
319.80 0.06240382
319.90 0.06302177
320.00 0.06363972
320.10 0.06425767
320.20 0.06487562
320.30 0.06549357
320.40 0.06611152
320.50 0.06672947
320.60 0.06734742
320.70 0.06796161
320.80 0.06855708
320.90 0.06910501
321.00 0.06957373
321.10 0.0699492
321.20 0.07024547
321.30 0.0704942
321.40 0.0707242
321.50 0.07095045
321.60 0.0711767
321.70 0.07140294
321.80 0.07162919
321.90 0.07185543
322.00 0.07208168
322.10 0.07230792
322.20 0.07253417
322.30 0.07276042
322.40 0.07298666
322.50 0.07321292
322.60 0.07343917
322.70 0.07367914
322.80 0.0739875
322.90 0.07446952
323.00 0.07524083
323.10 0.07635278
323.20 0.07775401
323.30 0.0793289
323.40 0.08097219
323.50 0.08262918
323.60 0.08428618
323.70 0.08594319
323.80 0.0876002
323.90 0.0892572
324.00 0.09091421
324.10 0.09257122
324.20 0.09422823
324.30 0.09588523
324.40 0.09754224
324.50 0.09919925
324.60 0.1008563
324.70 0.102511
324.80 0.1041547
324.90 0.1057702
325.00 0.1073386
325.10 0.1088518
325.20 0.1103179
325.30 0.1117558
325.40 0.1131827
325.50 0.1146073
325.60 0.1160319
325.70 0.1174564
325.80 0.118881
325.90 0.1203056
326.00 0.1217302
326.10 0.1231548
326.20 0.1245794
326.30 0.126004
326.40 0.1274286
326.50 0.1288532
326.60 0.1302778
326.70 0.1317072
326.80 0.1331605
326.90 0.1346747
327.00 0.1362901
327.10 0.1380248
327.20 0.1398608
327.30 0.1417575
327.40 0.1436783
327.50 0.1456038
327.60 0.1475293
327.70 0.1494548
327.80 0.1513803
327.90 0.1533058
328.00 0.1552314
328.10 0.1571569
328.20 0.1590824
328.30 0.1610079
328.40 0.1629334
328.50 0.1648589
328.60 0.1667844
328.70 0.1686818
328.80 0.1704386
328.90 0.1718387
329.00 0.1726445
329.10 0.1727506
329.20 0.1722625
329.30 0.1714175
329.40 0.1704321
329.50 0.1694185
329.60 0.168405
329.70 0.1673914
329.80 0.1663778
329.90 0.1653642
330.00 0.1643506
330.10 0.163337
330.20 0.1623234
330.30 0.1613098
330.40 0.1602962
330.50 0.1592826
330.60 0.158269
330.70 0.1572763
330.80 0.1563878
330.90 0.155764
331.00 0.155581
331.10 0.1559171
331.20 0.156694
331.30 0.1577355
331.40 0.1588812
331.50 0.1600479
331.60 0.1612145
331.70 0.1623812
331.80 0.1635479
331.90 0.1647145
332.00 0.1658812
332.10 0.1670478
332.20 0.1682145
332.30 0.1693812
332.40 0.1705478
332.50 0.1717145
332.60 0.1728811
332.70 0.1740346
332.80 0.175122
332.90 0.1760419
333.00 0.1766827
333.10 0.1769948
333.20 0.1770278
333.30 0.1768933
333.40 0.1766927
333.50 0.176479
333.60 0.1762652
333.70 0.1760515
333.80 0.1758377
333.90 0.175624
334.00 0.1754102
334.10 0.1751965
334.20 0.1749827
334.30 0.174769
334.40 0.1745552
334.50 0.1743415
334.60 0.1743057
334.70 0.1748503
334.80 0.1761305
334.90 0.1774309
335.00 0.1773901
335.10 0.1756367
335.20 0.174314
335.30 0.1774283
335.40 0.1877641
335.50 0.2037397
335.60 0.2192386
335.70 0.2271665
335.80 0.2240275
335.90 0.2116553
336.00 0.1952574
336.10 0.1801946
336.20 0.1702063
336.30 0.1668596
336.40 0.1688853
336.50 0.1723341
336.60 0.1729439
336.70 0.1696754
336.80 0.1660355
336.90 0.1673263
337.00 0.1761032
337.10 0.1896827
337.20 0.2016782
337.30 0.2063888
337.40 0.2028016
337.50 0.1952236
337.60 0.1899879
337.70 0.1907563
337.80 0.1963688
337.90 0.2029697
338.00 0.207611
338.10 0.2094818
338.20 0.2081544
338.30 0.2022281
338.40 0.1912261
338.50 0.1783997
338.60 0.1702244
338.70 0.1717466
338.80 0.1818747
338.90 0.193727
339.00 0.2001616
339.10 0.1996251
339.20 0.1971089
339.30 0.199241
339.40 0.2081822
339.50 0.2202261
339.60 0.2298072
339.70 0.2341766
339.80 0.2341054
339.90 0.2311278
340.00 0.2258548
340.10 0.2189175
340.20 0.2117745
340.30 0.2055338
340.40 0.1994494
340.50 0.1917034
340.60 0.1818582
340.70 0.1718686
340.80 0.164534
340.90 0.1614465
341.00 0.1624995
341.10 0.1667209
341.20 0.1729906
341.30 0.1799925
341.40 0.186176
341.50 0.1903554
341.60 0.1924139
341.70 0.1933548
341.80 0.1945386
341.90 0.1966784
342.00 0.1992072
342.10 0.2003888
342.20 0.1983747
342.30 0.192758
342.40 0.1854107
342.50 0.1795357
342.60 0.1775149
342.70 0.1794236
342.80 0.1833414
342.90 0.1868682
343.00 0.1886004
343.10 0.1887618
343.20 0.1886808
343.30 0.1894988
343.40 0.1911755
343.50 0.1927243
343.60 0.1932564
343.70 0.192528
343.80 0.1907281
343.90 0.1883023
344.00 0.1860647
344.10 0.184957
344.20 0.185225
344.30 0.1860037
344.40 0.1860769
344.50 0.1850407
344.60 0.183632
344.70 0.1830821
344.80 0.1843322
344.90 0.1877148
345.00 0.1930537
345.10 0.1997972
345.20 0.2070468
345.30 0.2135586
345.40 0.2179425
345.50 0.2193322
345.60 0.218108
345.70 0.2158343
345.80 0.2141892
345.90 0.213792
346.00 0.213925
346.10 0.2131625
346.20 0.2103651
346.30 0.2055769
346.40 0.2003134
346.50 0.1966797
346.60 0.195697
346.70 0.1964154
346.80 0.1967964
346.90 0.1953732
347.00 0.1920062
347.10 0.1876021
347.20 0.1836658
347.30 0.181875
347.40 0.1832966
347.50 0.1875457
347.60 0.1929648
347.70 0.197898
347.80 0.2017986
347.90 0.2052122
348.00 0.2089158
348.10 0.2130486
348.20 0.216832
348.30 0.2190841
348.40 0.2191776
348.50 0.2175895
348.60 0.215409
348.70 0.2133446
348.80 0.2113907
348.90 0.209319
349.00 0.2071409
349.10 0.2050502
349.20 0.20322
349.30 0.2018995
349.40 0.2015354
349.50 0.2024128
349.60 0.2040968
349.70 0.205499
349.80 0.2058401
349.90 0.2057458
350.00 0.2071718
350.10 0.2118631
350.20 0.2196813
350.30 0.228429
350.40 0.2353493
350.50 0.2388684
350.60 0.2391137
350.70 0.2371773
350.80 0.234187
350.90 0.2307737
351.00 0.2268258
351.10 0.2215416
351.20 0.214056
351.30 0.2045533
351.40 0.1948754
351.50 0.1876365
351.60 0.1843708
351.70 0.1844509
351.80 0.1858165
351.90 0.1866918
352.00 0.1865775
352.10 0.1858337
352.20 0.1848792
352.30 0.1840769
352.40 0.1842067
352.50 0.1866968
352.60 0.1928405
352.70 0.2024577
352.80 0.2133849
352.90 0.2226819
353.00 0.2287974
353.10 0.2325595
353.20 0.2359061
353.30 0.2399112
353.40 0.2443131
353.50 0.248585
353.60 0.2528343
353.70 0.2574668
353.80 0.2624757
353.90 0.2674156
354.00 0.2717041
354.10 0.2745842
354.20 0.2751434
354.30 0.2730166
354.40 0.2691768
354.50 0.2656033
354.60 0.2638038
354.70 0.2637019
354.80 0.2640553
354.90 0.2637591
355.00 0.2626068
355.10 0.2610424
355.20 0.2595384
355.30 0.2583134
355.40 0.2574732
355.50 0.2570637
355.60 0.256826
355.70 0.2560361
355.80 0.2538412
355.90 0.2499694
356.00 0.2450527
356.10 0.2401134
356.20 0.2356878
356.30 0.2313979
356.40 0.2263659
356.50 0.2201683
356.60 0.2135306
356.70 0.2080682
356.80 0.2051599
356.90 0.2049296
357.00 0.2062567
357.10 0.2076424
357.20 0.2079937
357.30 0.2068448
357.40 0.2042204
357.50 0.2004887
357.60 0.1962542
357.70 0.1921459
357.80 0.1885614
357.90 0.185578
358.00 0.1831731
358.10 0.1816097
358.20 0.1815385
358.30 0.1835715
358.40 0.1876676
358.50 0.1929114
358.60 0.1978675
358.70 0.2011952
358.80 0.202207
358.90 0.2012006
359.00 0.1994803
359.10 0.1988678
359.20 0.2006994
359.30 0.2048938
359.40 0.2098455
359.50 0.2134298
359.60 0.2144429
359.70 0.2133498
359.80 0.2117567
359.90 0.2110542
360.00 0.2113121
360.10 0.2112828
360.20 0.2094659
360.30 0.2053135
360.40 0.1996909
360.50 0.1944444
360.60 0.1915448
360.70 0.1923043
360.80 0.1967835
360.90 0.2036547
361.00 0.2108539
361.10 0.2167553
361.20 0.2209416
361.30 0.2238848
361.40 0.2259936
361.50 0.2271795
361.60 0.2274205
361.70 0.2273729
361.80 0.2280143
361.90 0.2296515
362.00 0.2315536
362.10 0.2327183
362.20 0.2327929
362.30 0.2321754
362.40 0.2315328
362.50 0.2314219
362.60 0.232028
362.70 0.2328453
362.80 0.2327667
362.90 0.2309645
363.00 0.2278551
363.10 0.2249748
363.20 0.2237425
363.30 0.2244017
363.40 0.2261238
363.50 0.227876
363.60 0.2290854
363.70 0.2296955
363.80 0.2298224
363.90 0.2294186
364.00 0.2281885
364.10 0.2257944
364.20 0.2221984
364.30 0.2178522
364.40 0.2136023
364.50 0.2104145
364.60 0.2090001
364.70 0.2094194
364.80 0.2109958
364.90 0.2128272
365.00 0.2146102
365.10 0.2169463
365.20 0.2206006
365.30 0.2253627
365.40 0.2297693
365.50 0.2321173
365.60 0.2318685
365.70 0.2300571
365.80 0.2282932
365.90 0.2274565
366.00 0.2273661
366.10 0.2275155
366.20 0.2278695
366.30 0.2287959
366.40 0.2303898
366.50 0.2321042
366.60 0.2330367
366.70 0.2325127
366.80 0.2304371
366.90 0.227243
367.00 0.2236655
367.10 0.2205394
367.20 0.218623
367.30 0.2184035
367.40 0.2198861
367.50 0.2225508
367.60 0.2256073
367.70 0.2284046
367.80 0.2307027
367.90 0.232628
368.00 0.2344057
368.10 0.2360891
368.20 0.2374638
368.30 0.2381529
368.40 0.2378615
368.50 0.2366539
368.60 0.2350691
368.70 0.2338975
368.80 0.2336986
368.90 0.2344593
369.00 0.2357497
369.10 0.2372293
369.20 0.2388805
369.30 0.240687
369.40 0.2422256
369.50 0.2427716
369.60 0.2419262
369.70 0.2401059
369.80 0.2383974
369.90 0.2379421
370.00 0.2393431
370.10 0.2424291
370.20 0.2464482
370.30 0.2504726
370.40 0.2537181
370.50 0.255676
370.60 0.2561702
370.70 0.2554965
370.80 0.254441
370.90 0.2539288
371.00 0.2544241
371.10 0.255545
371.20 0.2562081
371.30 0.2551888
371.40 0.251805
371.50 0.2463704
371.60 0.2401479
371.70 0.2347592
371.80 0.2314441
371.90 0.2306586
372.00 0.232113
372.10 0.2348559
372.20 0.2372084
372.30 0.2370563
372.40 0.2328279
372.50 0.224726
372.60 0.2150998
372.70 0.2073927
372.80 0.2043885
372.90 0.2069916
373.00 0.2141599
373.10 0.2236614
373.20 0.2330002
373.30 0.2400914
373.40 0.2436792
373.50 0.243426
373.60 0.2396822
373.70 0.2331517
373.80 0.2247431
373.90 0.2156524
374.00 0.2073792
374.10 0.2014661
374.20 0.1991062
374.30 0.2009326
374.40 0.2070675
374.50 0.2171672
374.60 0.230294
374.70 0.2447381
374.80 0.2581248
374.90 0.2680171
375.00 0.272752
375.10 0.2719753
375.20 0.2665837
375.30 0.2582581
375.40 0.2489476
375.50 0.24046
375.60 0.2340315
375.70 0.229996
375.80 0.2278044
375.90 0.226481
376.00 0.2253001
376.10 0.2243185
376.20 0.2244904
376.30 0.2272716
376.40 0.23391
376.50 0.244908
376.60 0.2600092
376.70 0.278364
376.80 0.2984117
376.90 0.3175541
377.00 0.3323676
377.10 0.3397769
377.20 0.3384612
377.30 0.329367
377.40 0.3150116
377.50 0.2982929
377.60 0.2816608
377.70 0.2668789
377.80 0.2549609
377.90 0.2461184
378.00 0.2398862
378.10 0.2355256
378.20 0.2324566
378.30 0.230366
378.40 0.2290366
378.50 0.2282895
378.60 0.2281529
378.70 0.2289568
378.80 0.2311908
378.90 0.2354038
379.00 0.2423691
379.10 0.2531805
379.20 0.2687978
379.30 0.2892073
379.40 0.3129021
379.50 0.337099
379.60 0.3583811
379.70 0.3733781
379.80 0.3795295
379.90 0.3758817
380.00 0.3635766
380.10 0.3455188
380.20 0.3252687
380.30 0.3058222
380.40 0.2889805
380.50 0.2753954
380.60 0.2649235
380.70 0.2569302
380.80 0.2505158
380.90 0.2449056
381.00 0.2398322
381.10 0.2355238
381.20 0.2322448
381.30 0.2298621
381.40 0.2279738
381.50 0.2264779
381.60 0.225796
381.70 0.2263375
381.80 0.227746
381.90 0.2288245
382.00 0.2284075
382.10 0.2263581
382.20 0.2237142
382.30 0.2207916
382.40 0.2182242
382.50 0.2221824
382.60 0.2405353
382.70 0.2671581
382.80 0.2752063
382.90 0.239428
383.00 0.171178
383.10 0.1211309
383.20 0.1352563
383.30 0.2120071
383.40 0.3073629
383.50 0.3757544
383.60 0.4043577
383.70 0.4102615
383.80 0.4121638
383.90 0.4142923
384.00 0.4115831
384.10 0.3988407
384.20 0.3735573
384.30 0.3333931
384.40 0.2826449
384.50 0.2371738
384.60 0.2119478
384.70 0.2070355
384.80 0.2150591
384.90 0.2331022
385.00 0.261191
385.10 0.2931497
385.20 0.3124441
385.30 0.3044703
385.40 0.2669076
385.50 0.2129267
385.60 0.1649626
385.70 0.1354037
385.80 0.1165437
385.90 0.0979153
386.00 0.09133214
386.10 0.1213712
386.20 0.1884437
386.30 0.2520793
386.40 0.2654878
386.50 0.2244596
386.60 0.1694948
386.70 0.1433502
386.80 0.1526882
386.90 0.1761566
387.00 0.2003496
387.10 0.2322594
387.20 0.2772715
387.30 0.3220827
387.40 0.3471988
387.50 0.3476282
387.60 0.3370476
387.70 0.3352109
387.80 0.3536631
387.90 0.38597
388.00 0.4066656
388.10 0.3914107
388.20 0.3413301
388.30 0.2784219
388.40 0.2208782
388.50 0.172098
388.60 0.1353084
388.70 0.1246915
388.80 0.1535781
388.90 0.2166539
389.00 0.2884632
389.10 0.3387212
389.20 0.3514896
389.30 0.3383913
389.40 0.3280714
389.50 0.3345869
389.60 0.3401471
389.70 0.3194336
389.80 0.2775439
389.90 0.2508549
390.00 0.266141
390.10 0.310086
390.20 0.3469005
390.30 0.3539686
390.40 0.3318826
390.50 0.289337
390.60 0.2333768
390.70 0.1794615
390.80 0.1535648
390.90 0.1714708
391.00 0.2202142
391.10 0.2667294
391.20 0.2869551
391.30 0.2816738
391.40 0.267435
391.50 0.2589683
391.60 0.2608742
391.70 0.2684428
391.80 0.273883
391.90 0.2744204
392.00 0.2750033
392.10 0.2846489
392.20 0.3075462
392.30 0.3375366
392.40 0.3606693
392.50 0.3588685
392.60 0.318452
392.70 0.2406576
392.80 0.1483149
392.90 0.0779857
393.00 0.0578643
393.10 0.08675742
393.20 0.1326294
393.30 0.1573856
393.40 0.1471747
393.50 0.1216848
393.60 0.1153456
393.70 0.1492587
393.80 0.216201
393.90 0.2866715
394.00 0.3283185
394.10 0.3254438
394.20 0.2864329
394.30 0.2346271
394.40 0.1948502
394.50 0.1848287
394.60 0.2116268
394.70 0.2669545
394.80 0.3263001
394.90 0.3617224
395.00 0.3614597
395.10 0.3374059
395.20 0.3102726
395.30 0.2886395
395.40 0.265878
395.50 0.2352246
395.60 0.2013268
395.70 0.1738668
395.80 0.1560095
395.90 0.1469815
396.00 0.1504927
396.10 0.1700499
396.20 0.1992891
396.30 0.2237174
396.40 0.2341175
396.50 0.2327689
396.60 0.2241977
396.70 0.2091926
396.80 0.1923839
396.90 0.18729
397.00 0.2068293
397.10 0.2477682
397.20 0.2900759
397.30 0.316732
397.40 0.3287956
397.50 0.3401017
397.60 0.3604433
397.70 0.3856604
397.80 0.4057819
397.90 0.4186019
398.00 0.4290148
398.10 0.4377371
398.20 0.4369042
398.30 0.4206366
398.40 0.398355
398.50 0.3875343
398.60 0.3920171
398.70 0.3957591
398.80 0.3812834
398.90 0.35304
399.00 0.335739
399.10 0.348651
399.20 0.3868412
399.30 0.4280026
399.40 0.4525343
399.50 0.4549615
399.60 0.4419358
399.70 0.4268494
399.80 0.423646
399.90 0.4358613
400.00 0.4494025
400.10 0.4421757
400.20 0.4059308
400.30 0.358672
400.40 0.3332361
400.50 0.3524823
400.60 0.4117358
400.70 0.4801235
400.80 0.5193049
400.90 0.510409
401.00 0.4686643
401.10 0.4285375
401.20 0.412893
401.30 0.4184657
401.40 0.4304473
401.50 0.4440023
401.60 0.4630162
401.70 0.4837756
401.80 0.4934578
401.90 0.4834363
402.00 0.457015
402.10 0.4230932
402.20 0.3879226
402.30 0.3560657
402.40 0.3341433
402.50 0.3260279
402.60 0.3295022
402.70 0.3397011
402.80 0.353104
402.90 0.3679325
403.00 0.3814133
403.10 0.388483
403.20 0.3827258
403.30 0.3612333
403.40 0.3324872
403.50 0.3147381
403.60 0.321189
403.70 0.3474978
403.80 0.3770161
403.90 0.3984102
404.00 0.413397
404.10 0.4271381
404.20 0.4368141
404.30 0.4325315
404.40 0.4095853
404.50 0.3771395
404.60 0.3511029
404.70 0.3432619
404.80 0.3579222
404.90 0.393671
405.00 0.4419565
405.10 0.4866973
405.20 0.5139411
405.30 0.5223059
405.40 0.5194062
405.50 0.5105781
405.60 0.4977798
405.70 0.4839429
405.80 0.4721235
405.90 0.4615727
406.00 0.4495152
406.10 0.4366268
406.20 0.4263493
406.30 0.4199459
406.40 0.415209
406.50 0.4095292
406.60 0.4028019
406.70 0.3987167
406.80 0.4034938
406.90 0.4168704
407.00 0.4264828
407.10 0.4167955
407.20 0.3860541
407.30 0.3508095
407.40 0.3295439
407.50 0.3293134
407.60 0.3495751
407.70 0.3889721
407.80 0.4395139
407.90 0.4829177
408.00 0.5047715
408.10 0.5093526
408.20 0.5120094
408.30 0.5199607
408.40 0.5301958
408.50 0.5433999
408.60 0.5663996
408.70 0.5978056
408.80 0.6207742
408.90 0.6174517
409.00 0.5883538
409.10 0.5521274
409.20 0.5271383
409.30 0.5165918
409.40 0.5121227
409.50 0.5056114
409.60 0.4955479
409.70 0.4853204
409.80 0.48109
409.90 0.4887285
410.00 0.5058467
410.10 0.5188102
410.20 0.5135863
410.30 0.4925214
410.40 0.4767419
410.50 0.4868872
410.60 0.5206342
410.70 0.5523284
410.80 0.5566823
410.90 0.5307888
411.00 0.4929981
411.10 0.463006
411.20 0.4456186
411.30 0.4323991
411.40 0.4135497
411.50 0.3873575
411.60 0.3642849
411.70 0.3618844
411.80 0.3909968
411.90 0.4448298
412.00 0.5026052
412.10 0.5456049
412.20 0.5692766
412.30 0.580122
412.40 0.5844493
412.50 0.5821393
412.60 0.5685299
412.70 0.5402636
412.80 0.5001211
412.90 0.4581457
413.00 0.4282934
413.10 0.4202887
413.20 0.4333936
413.30 0.4584532
413.40 0.4840129
413.50 0.5002536
413.60 0.5004386
413.70 0.486831
413.80 0.4750675
413.90 0.4823575
414.00 0.5067125
414.10 0.522317
414.20 0.5042555
414.30 0.456809
414.40 0.4115676
414.50 0.3994302
414.60 0.4257936
414.70 0.4697385
414.80 0.5029289
414.90 0.5107739
415.00 0.4991016
415.10 0.4834785
415.20 0.4723853
415.30 0.4635289
415.40 0.4548046
415.50 0.451108
415.60 0.4579274
415.70 0.473052
415.80 0.488459
415.90 0.4989857
416.00 0.5045883
416.10 0.5082057
416.20 0.5137202
416.30 0.5216032
416.40 0.524561
