# Version 2.1 - nm, norm@500 to 1, cut digits
# Wavelength(nm)  Flambda(ergs/cm^s/s/nm)
300.00 0.01117767
300.10 0.01485778
300.20 0.01709879
300.30 0.01802524
300.40 0.01826759
300.50 0.0183384
300.60 0.01840918
300.70 0.01848067
300.80 0.01855579
300.90 0.01864019
301.00 0.01874002
301.10 0.01885804
301.20 0.0189915
301.30 0.01913423
301.40 0.01928062
301.50 0.01942773
301.60 0.01957485
301.70 0.01972196
301.80 0.01986908
301.90 0.02001619
302.00 0.02016331
302.10 0.02031042
302.20 0.02045754
302.30 0.02060466
302.40 0.02075177
302.50 0.02089889
302.60 0.021046
302.70 0.02119368
302.80 0.02134412
302.90 0.0215016
303.00 0.02167081
303.10 0.02185382
303.20 0.02204856
303.30 0.02225034
303.40 0.02245489
303.50 0.02266
303.60 0.0228651
303.70 0.02307021
303.80 0.02327531
303.90 0.02348042
304.00 0.02368553
304.10 0.02389063
304.20 0.02409574
304.30 0.02430084
304.40 0.02450595
304.50 0.02471105
304.60 0.02491616
304.70 0.02511956
304.80 0.02531449
304.90 0.02548789
305.00 0.02562543
305.10 0.02572073
305.20 0.02578018
305.30 0.0258181
305.40 0.02584754
305.50 0.02587528
305.60 0.02590303
305.70 0.02593077
305.80 0.02595851
305.90 0.02598625
306.00 0.02601399
306.10 0.02604173
306.20 0.02606947
306.30 0.02609721
306.40 0.02612495
306.50 0.02615269
306.60 0.02618043
306.70 0.02620817
306.80 0.02623593
306.90 0.02626374
307.00 0.02629163
307.10 0.02631961
307.20 0.02634767
307.30 0.02637577
307.40 0.02640389
307.50 0.02643202
307.60 0.02646014
307.70 0.02648827
307.80 0.02651639
307.90 0.02654452
308.00 0.02657264
308.10 0.02660077
308.20 0.02662889
308.30 0.02665702
308.40 0.02668515
308.50 0.02671327
308.60 0.0267414
308.70 0.02677378
308.80 0.02682739
308.90 0.02693487
309.00 0.0271321
309.10 0.02743502
309.20 0.02782769
309.30 0.02827424
309.40 0.02874201
309.50 0.02921404
309.60 0.02968606
309.70 0.03015809
309.80 0.03063011
309.90 0.03110214
310.00 0.03157417
310.10 0.0320462
310.20 0.03251822
310.30 0.03299025
310.40 0.03346228
310.50 0.0339343
310.60 0.03440633
310.70 0.03487407
310.80 0.03532049
310.90 0.03571274
311.00 0.03601477
311.10 0.03621056
311.20 0.03631612
311.30 0.03636752
311.40 0.03639758
311.50 0.03642337
311.60 0.03644916
311.70 0.03647495
311.80 0.03650074
311.90 0.03652652
312.00 0.03655231
312.10 0.0365781
312.20 0.03660388
312.30 0.03662967
312.40 0.03665546
312.50 0.03668125
312.60 0.03670704
312.70 0.03673811
312.80 0.03679553
312.90 0.03691984
313.00 0.03715559
313.10 0.03752255
313.20 0.03800094
313.30 0.03854622
313.40 0.03911786
313.50 0.03969477
313.60 0.04027169
313.70 0.04084861
313.80 0.04142552
313.90 0.04200244
314.00 0.04257936
314.10 0.04315628
314.20 0.0437332
314.30 0.04431011
314.40 0.04488703
314.50 0.04546395
314.60 0.04604087
314.70 0.04662147
314.80 0.04722041
314.90 0.04786591
315.00 0.04858898
315.10 0.04940338
315.20 0.05029536
315.30 0.0512339
315.40 0.05219078
315.50 0.05315134
315.60 0.05411189
315.70 0.05507245
315.80 0.05603301
315.90 0.05699357
316.00 0.05795413
316.10 0.05891468
316.20 0.05987524
316.30 0.0608358
316.40 0.06179636
316.50 0.06275691
316.60 0.06371746
316.70 0.06466449
316.80 0.06554412
316.90 0.06625257
317.00 0.06667591
317.10 0.0667635
317.20 0.06656596
317.30 0.06619726
317.40 0.06576115
317.50 0.06531152
317.60 0.06486189
317.70 0.06441226
317.80 0.06396262
317.90 0.06351299
318.00 0.06306335
318.10 0.06261371
318.20 0.06216408
318.30 0.06171444
318.40 0.06126481
318.50 0.06081518
318.60 0.06036555
318.70 0.05992626
318.80 0.05953858
318.90 0.05928193
319.00 0.05924353
319.10 0.05946214
319.20 0.05989902
319.30 0.06046691
319.40 0.06108642
319.50 0.06171626
319.60 0.06234611
319.70 0.06297596
319.80 0.06360581
319.90 0.06423566
320.00 0.06486552
320.10 0.06549537
320.20 0.06612522
320.30 0.06675507
320.40 0.06738493
320.50 0.06801478
320.60 0.06864463
320.70 0.06927065
320.80 0.06987759
320.90 0.07043607
321.00 0.07091383
321.10 0.07129653
321.20 0.0715985
321.30 0.07185202
321.40 0.07208645
321.50 0.07231706
321.60 0.07254766
321.70 0.07277827
321.80 0.07300887
321.90 0.07323947
322.00 0.07347008
322.10 0.07370068
322.20 0.07393128
322.30 0.07416189
322.40 0.07439249
322.50 0.0746231
322.60 0.07485372
322.70 0.0750983
322.80 0.07541261
322.90 0.07590391
323.00 0.07669008
323.10 0.07782344
323.20 0.07925166
323.30 0.08085689
323.40 0.08253183
323.50 0.08422074
323.60 0.08590966
323.70 0.08759858
323.80 0.0892875
323.90 0.09097643
324.00 0.09266535
324.10 0.09435428
324.20 0.0960432
324.30 0.09773212
324.40 0.09942105
324.50 0.10111
324.60 0.1027989
324.70 0.1044855
324.80 0.1061609
324.90 0.1078074
325.00 0.1094061
325.10 0.1109484
325.20 0.1124428
325.30 0.1139084
325.40 0.1153627
325.50 0.1168148
325.60 0.1182668
325.70 0.1197188
325.80 0.1211709
325.90 0.1226229
326.00 0.1240749
326.10 0.125527
326.20 0.126979
326.30 0.128431
326.40 0.1298831
326.50 0.1313351
326.60 0.1327871
326.70 0.1342441
326.80 0.1357254
326.90 0.1372687
327.00 0.1389153
327.10 0.1406834
327.20 0.1425547
327.30 0.144488
327.40 0.1464457
327.50 0.1484083
327.60 0.1503709
327.70 0.1523335
327.80 0.1542961
327.90 0.1562587
328.00 0.1582213
328.10 0.160184
328.20 0.1621466
328.30 0.1641092
328.40 0.1660718
328.50 0.1680344
328.60 0.169997
328.70 0.1719308
328.80 0.1737215
328.90 0.1751486
329.00 0.1759699
329.10 0.1760781
329.20 0.1755805
329.30 0.1747193
329.40 0.1737149
329.50 0.1726818
329.60 0.1716487
329.70 0.1706156
329.80 0.1695824
329.90 0.1685493
330.00 0.1675162
330.10 0.1664831
330.20 0.16545
330.30 0.1644168
330.40 0.1633837
330.50 0.1623506
330.60 0.1613175
330.70 0.1603057
330.80 0.1594001
330.90 0.1587642
331.00 0.1585777
331.10 0.1589203
331.20 0.1597121
331.30 0.1607737
331.40 0.1619415
331.50 0.1631306
331.60 0.1643198
331.70 0.1655089
331.80 0.166698
331.90 0.1678872
332.00 0.1690763
332.10 0.1702654
332.20 0.1714546
332.30 0.1726437
332.40 0.1738328
332.50 0.175022
332.60 0.1762111
332.70 0.1773867
332.80 0.1784951
332.90 0.1794327
333.00 0.1800858
333.10 0.180404
333.20 0.1804376
333.30 0.1803005
333.40 0.1800961
333.50 0.1798782
333.60 0.1796604
333.70 0.1794425
333.80 0.1792246
333.90 0.1790068
334.00 0.1787889
334.10 0.178571
334.20 0.1783531
334.30 0.1781353
334.40 0.1779174
334.50 0.1776996
334.60 0.1776631
334.70 0.1782182
334.80 0.179523
334.90 0.1808485
335.00 0.1808069
335.10 0.1790197
335.20 0.1776715
335.30 0.1808458
335.40 0.1913807
335.50 0.207664
335.60 0.2234615
335.70 0.231542
335.80 0.2283426
335.90 0.2157321
336.00 0.1990183
336.10 0.1836654
336.20 0.1734847
336.30 0.1700736
336.40 0.1721383
336.50 0.1756535
336.60 0.176275
336.70 0.1729436
336.80 0.1692335
336.90 0.1705493
337.00 0.1794952
337.10 0.1933363
337.20 0.2055628
337.30 0.2103642
337.40 0.2067079
337.50 0.1989839
337.60 0.1936473
337.70 0.1944305
337.80 0.2001511
337.90 0.2068792
338.00 0.2116099
338.10 0.2135167
338.20 0.2121638
338.30 0.2061233
338.40 0.1949093
338.50 0.1818359
338.60 0.1735031
338.70 0.1750547
338.80 0.1853778
338.90 0.1974584
339.00 0.204017
339.10 0.2034702
339.20 0.2009055
339.30 0.2030787
339.40 0.2121921
339.50 0.224468
339.60 0.2342336
339.70 0.2386872
339.80 0.2386146
339.90 0.2355797
340.00 0.2302051
340.10 0.2231341
340.20 0.2158536
340.30 0.2094927
340.40 0.203291
340.50 0.1953959
340.60 0.185361
340.70 0.1751791
340.80 0.1677032
340.90 0.1645562
341.00 0.1656294
341.10 0.1699322
341.20 0.1763227
341.30 0.1834594
341.40 0.189762
341.50 0.1940219
341.60 0.1961201
341.70 0.1970791
341.80 0.1982857
341.90 0.2004668
342.00 0.2030442
342.10 0.2042486
342.20 0.2021957
342.30 0.1964708
342.40 0.1889819
342.50 0.1829938
342.60 0.1809341
342.70 0.1828796
342.80 0.1868729
342.90 0.1904675
343.00 0.1922331
343.10 0.1923977
343.20 0.1923151
343.30 0.1931488
343.40 0.1948578
343.50 0.1964364
343.60 0.1969788
343.70 0.1962363
343.80 0.1944018
343.90 0.1919293
344.00 0.1896486
344.10 0.1885195
344.20 0.1887927
344.30 0.1895864
344.40 0.189661
344.50 0.1886049
344.60 0.187169
344.70 0.1866085
344.80 0.1878827
344.90 0.1913305
345.00 0.1967722
345.10 0.2036456
345.20 0.2110348
345.30 0.217672
345.40 0.2221404
345.50 0.2235568
345.60 0.2223091
345.70 0.2199915
345.80 0.2183148
345.90 0.2179099
346.00 0.2180455
346.10 0.2172683
346.20 0.214417
346.30 0.2095366
346.40 0.2041717
346.50 0.200468
346.60 0.1994664
346.70 0.2001986
346.80 0.200587
346.90 0.1991364
347.00 0.1957045
347.10 0.1912156
347.20 0.1872034
347.30 0.1853782
347.40 0.1868272
347.50 0.1911581
347.60 0.1966816
347.70 0.2017098
347.80 0.2056855
347.90 0.2091648
348.00 0.2129398
348.10 0.2171522
348.20 0.2210085
348.30 0.223304
348.40 0.2233993
348.50 0.2217806
348.60 0.2195581
348.70 0.217454
348.80 0.2154624
348.90 0.2133508
349.00 0.2111308
349.10 0.2089997
349.20 0.2071343
349.30 0.2057884
349.40 0.2054173
349.50 0.2063115
349.60 0.208028
349.70 0.2094572
349.80 0.2098049
349.90 0.2097088
350.00 0.2111623
350.10 0.2159439
350.20 0.2239126
350.30 0.2328289
350.40 0.2398825
350.50 0.2434694
350.60 0.2437194
350.70 0.2417457
350.80 0.2386978
350.90 0.2352187
351.00 0.2311948
351.10 0.2258088
351.20 0.218179
351.30 0.2084933
351.40 0.198629
351.50 0.1912507
351.60 0.1879221
351.70 0.1880037
351.80 0.1893956
351.90 0.1902878
352.00 0.1901713
352.10 0.1894131
352.20 0.1884402
352.30 0.1876225
352.40 0.1877548
352.50 0.1902929
352.60 0.1965549
352.70 0.2063574
352.80 0.217495
352.90 0.2269711
353.00 0.2332044
353.10 0.237039
353.20 0.2404499
353.30 0.2445323
353.40 0.2490189
353.50 0.2533731
353.60 0.2577043
353.70 0.262426
353.80 0.2675314
353.90 0.2725664
354.00 0.2769375
354.10 0.2798731
354.20 0.280443
354.30 0.2782753
354.40 0.2743615
354.50 0.2707192
354.60 0.268885
354.70 0.2687812
354.80 0.2691414
354.90 0.2688394
355.00 0.267665
355.10 0.2660704
355.20 0.2645374
355.30 0.2632889
355.40 0.2624325
355.50 0.2620151
355.60 0.2617729
355.70 0.2609677
355.80 0.2587306
355.90 0.2547842
356.00 0.2497728
356.10 0.2447383
356.20 0.2402275
356.30 0.235855
356.40 0.230726
356.50 0.2244091
356.60 0.2176435
356.70 0.2120759
356.80 0.2091116
356.90 0.2088768
357.00 0.2102295
357.10 0.2116419
357.20 0.212
357.30 0.2108289
357.40 0.2081539
357.50 0.2043504
357.60 0.2000344
357.70 0.1958469
357.80 0.1921933
357.90 0.1891525
358.00 0.1867012
358.10 0.1851077
358.20 0.1850352
358.30 0.1871074
358.40 0.1912824
358.50 0.1966271
358.60 0.2016787
358.70 0.2050705
358.80 0.2061018
358.90 0.205076
359.00 0.2033226
359.10 0.2026983
359.20 0.2045652
359.30 0.2088404
359.40 0.2138875
359.50 0.2175407
359.60 0.2185734
359.70 0.2174592
359.80 0.2158355
359.90 0.2151194
360.00 0.2153823
360.10 0.2153524
360.20 0.2135005
360.30 0.2092682
360.40 0.2035373
360.50 0.1981896
360.60 0.1952343
360.70 0.1960083
360.80 0.2005738
360.90 0.2075774
361.00 0.2149153
361.10 0.2209303
361.20 0.2251973
361.30 0.2281972
361.40 0.2303466
361.50 0.2315553
361.60 0.2318009
361.70 0.2317524
361.80 0.2324062
361.90 0.2340749
362.00 0.2360137
362.10 0.2372008
362.20 0.2372768
362.30 0.2366475
362.40 0.2359925
362.50 0.2358794
362.60 0.2364972
362.70 0.2373302
362.80 0.2372501
362.90 0.2354133
363.00 0.2322439
363.10 0.2293082
363.20 0.2280521
363.30 0.228724
363.40 0.2304793
363.50 0.2322652
363.60 0.2334979
363.70 0.2341197
363.80 0.2342492
363.90 0.2338375
364.00 0.2325837
364.10 0.2301436
364.20 0.2264782
364.30 0.2220483
364.40 0.2177166
364.50 0.2144674
364.60 0.2130257
364.70 0.2134531
364.80 0.2150599
364.90 0.2169266
365.00 0.2187439
365.10 0.221125
365.20 0.2248497
365.30 0.2297035
365.40 0.234195
365.50 0.2365882
365.60 0.2363346
365.70 0.2344883
365.80 0.2326905
365.90 0.2318376
366.00 0.2317455
366.10 0.2318978
366.20 0.2322586
366.30 0.2332028
366.40 0.2348275
366.50 0.2365749
366.60 0.2375253
366.70 0.2369912
366.80 0.2348756
366.90 0.2316201
367.00 0.2279736
367.10 0.2247873
367.20 0.222834
367.30 0.2226103
367.40 0.2241214
367.50 0.2268375
367.60 0.2299528
367.70 0.232804
367.80 0.2351464
367.90 0.2371088
368.00 0.2389207
368.10 0.2406365
368.20 0.2420377
368.30 0.2427401
368.40 0.2424431
368.50 0.2412122
368.60 0.2395969
368.70 0.2384028
368.80 0.2382
368.90 0.2389753
369.00 0.2402906
369.10 0.2417987
369.20 0.2434817
369.30 0.245323
369.40 0.2468912
369.50 0.2474478
369.60 0.2465861
369.70 0.2447307
369.80 0.2429893
369.90 0.2425252
370.00 0.2439532
370.10 0.2470986
370.20 0.2511952
370.30 0.2552971
370.40 0.2586051
370.50 0.2606007
370.60 0.2611044
370.70 0.2604178
370.80 0.2593419
370.90 0.2588199
371.00 0.2593247
371.10 0.2604672
371.20 0.261143
371.30 0.2601041
371.40 0.2566552
371.50 0.2511159
371.60 0.2447735
371.70 0.239281
371.80 0.235902
371.90 0.2351014
372.00 0.2365838
372.10 0.2393796
372.20 0.2417774
372.30 0.2416224
372.40 0.2373125
372.50 0.2290545
372.60 0.2192429
372.70 0.2113874
372.80 0.2083253
372.90 0.2109786
373.00 0.2182849
373.10 0.2279695
373.20 0.2374881
373.30 0.2447159
373.40 0.2483728
373.50 0.2481148
373.60 0.2442988
373.70 0.2376425
373.80 0.2290719
373.90 0.2198062
374.00 0.2113736
374.10 0.2053466
374.20 0.2029413
374.30 0.2048028
374.40 0.2110559
374.50 0.2213501
374.60 0.2347298
374.70 0.2494521
374.80 0.2630966
374.90 0.2731795
375.00 0.2780056
375.10 0.2772139
375.20 0.2717185
375.30 0.2632325
375.40 0.2537427
375.50 0.2450916
375.60 0.2385393
375.70 0.2344261
375.80 0.2321923
375.90 0.2308434
376.00 0.2296397
376.10 0.2286392
376.20 0.2288144
376.30 0.2316492
376.40 0.2384155
376.50 0.2496252
376.60 0.2650174
376.70 0.2837257
376.80 0.3041596
376.90 0.3236706
377.00 0.3387695
377.10 0.3463215
377.20 0.3449805
377.30 0.3357111
377.40 0.3210792
377.50 0.3040385
377.60 0.287086
377.70 0.2720193
377.80 0.2598719
377.90 0.2508589
378.00 0.2445067
378.10 0.2400622
378.20 0.236934
378.30 0.2348032
378.40 0.2334482
378.50 0.2326867
378.60 0.2325475
378.70 0.2333668
378.80 0.2356439
378.90 0.2399381
379.00 0.2470375
379.10 0.2580571
379.20 0.2739752
379.30 0.2947779
379.40 0.318929
379.50 0.343592
379.60 0.3652841
379.70 0.38057
379.80 0.3868398
379.90 0.3831217
380.00 0.3705796
380.10 0.352174
380.20 0.3315339
380.30 0.3117128
380.40 0.2945466
380.50 0.2806999
380.60 0.2700263
380.70 0.2618791
380.80 0.2553411
380.90 0.2496229
381.00 0.2444517
381.10 0.2400604
381.20 0.2367182
381.30 0.2342895
381.40 0.2323649
381.50 0.2308402
381.60 0.2301451
381.70 0.2306971
381.80 0.2321327
381.90 0.233232
382.00 0.2328069
382.10 0.2307159
382.20 0.2280202
382.30 0.225661
382.40 0.225357
382.50 0.2337871
382.60 0.2594016
382.70 0.2958879
382.80 0.3162959
382.90 0.2979712
383.00 0.2558803
383.10 0.2395648
383.20 0.2833882
383.30 0.3694485
383.40 0.4487784
383.50 0.4900892
383.60 0.4998794
383.70 0.4995129
383.80 0.4946811
383.90 0.4763646
384.00 0.4429052
384.10 0.406251
384.20 0.3776919
384.30 0.3531926
384.40 0.3209887
384.50 0.2794096
384.60 0.2391562
384.70 0.2113895
384.80 0.2016267
384.90 0.2101201
385.00 0.2341673
385.10 0.2668911
385.20 0.2931252
385.30 0.2957616
385.40 0.2674517
385.50 0.2199796
385.60 0.1769916
385.70 0.1521848
385.80 0.1411391
385.90 0.1373354
386.00 0.1501694
386.10 0.1954493
386.20 0.2688235
386.30 0.3340799
386.40 0.3490426
386.50 0.3067017
386.60 0.2454955
386.70 0.2155132
386.80 0.2315758
386.90 0.2660393
387.00 0.2865722
387.10 0.2899016
387.20 0.2932377
387.30 0.3054412
387.40 0.3178611
387.50 0.3197675
387.60 0.3146232
387.70 0.3181437
387.80 0.3421436
387.90 0.3780068
388.00 0.3973922
388.10 0.3786988
388.20 0.3312874
388.30 0.2827541
388.40 0.2471162
388.50 0.2181605
388.60 0.1939886
388.70 0.1912289
388.80 0.2263483
388.90 0.2938617
389.00 0.3687354
389.10 0.4235626
389.20 0.4437814
389.30 0.4358688
389.40 0.4236557
389.50 0.4275163
389.60 0.4421991
389.70 0.4432264
389.80 0.4163384
389.90 0.3746776
390.00 0.3424826
390.10 0.3282053
390.20 0.322465
390.30 0.3174877
390.40 0.3155274
390.50 0.3154967
390.60 0.3028476
390.70 0.2661793
390.80 0.2189358
390.90 0.1930089
391.00 0.2066014
391.10 0.2461468
391.20 0.2827928
391.30 0.2982129
391.40 0.2944412
391.50 0.2820988
391.60 0.2682763
391.70 0.2545502
391.80 0.2427304
391.90 0.237671
392.00 0.2430342
392.10 0.2590324
392.20 0.2838781
392.30 0.3140655
392.40 0.3400507
392.50 0.3432121
392.60 0.3083669
392.70 0.2403278
392.80 0.1653259
392.90 0.1159174
393.00 0.1109608
393.10 0.1440097
393.20 0.1857011
393.30 0.2016523
393.40 0.1775438
393.50 0.1328654
393.60 0.1055539
393.70 0.121355
393.80 0.1764497
393.90 0.2457227
394.00 0.3041666
394.10 0.3367757
394.20 0.3362888
394.30 0.3021349
394.40 0.247623
394.50 0.2025874
394.60 0.1995716
394.70 0.2472257
394.80 0.3171611
394.90 0.3643903
395.00 0.3658432
395.10 0.3371959
395.20 0.3086405
395.30 0.2935909
395.40 0.2864214
395.50 0.2800333
395.60 0.2724723
395.70 0.2599866
395.80 0.2385963
395.90 0.2160469
396.00 0.2099993
396.10 0.2297578
396.20 0.2664229
396.30 0.3003292
396.40 0.3161728
396.50 0.3115981
396.60 0.2962718
396.70 0.2845236
396.80 0.2858096
396.90 0.2968166
397.00 0.30261
397.10 0.2884115
397.20 0.2545021
397.30 0.2220612
397.40 0.2171078
397.50 0.2469747
397.60 0.2953525
397.70 0.3405384
397.80 0.3755334
397.90 0.4079291
398.00 0.4426615
398.10 0.4715732
398.20 0.4811096
398.30 0.4678786
398.40 0.443996
398.50 0.4256847
398.60 0.4169664
398.70 0.4058921
398.80 0.3789079
398.90 0.3409126
399.00 0.3184663
399.10 0.3356259
399.20 0.3888042
399.30 0.4510633
399.40 0.4985092
399.50 0.5236213
399.60 0.5261071
399.70 0.5085229
399.80 0.4843558
399.90 0.4752009
400.00 0.486956
400.10 0.4981005
400.20 0.4834832
400.30 0.4460633
400.40 0.4164904
400.50 0.4211694
400.60 0.4553675
400.70 0.4887581
400.80 0.4935375
400.90 0.4669831
401.00 0.4317991
401.10 0.41458
401.20 0.4233694
401.30 0.4449103
401.40 0.4624705
401.50 0.4737251
401.60 0.4862524
401.70 0.4998519
401.80 0.5028767
401.90 0.4872555
402.00 0.4619381
402.10 0.4463613
402.20 0.4519867
402.30 0.4737929
402.40 0.4963634
402.50 0.5047376
402.60 0.4939475
402.70 0.4693628
402.80 0.4390923
402.90 0.4076228
403.00 0.376232
403.10 0.3475891
403.20 0.3248838
403.30 0.3072188
403.40 0.2933125
403.50 0.2874327
403.60 0.2990357
403.70 0.3349279
403.80 0.3902008
403.90 0.4475455
404.00 0.4875104
404.10 0.5013152
404.20 0.4925654
404.30 0.4669425
404.40 0.4272891
404.50 0.3828882
404.60 0.351162
404.70 0.3440505
404.80 0.3579062
404.90 0.3822624
405.00 0.411469
405.10 0.4425205
405.20 0.4690114
405.30 0.484214
405.40 0.4872533
405.50 0.4816229
405.60 0.4716904
405.70 0.460994
405.80 0.451065
405.90 0.4415393
406.00 0.4311984
406.10 0.4191146
406.20 0.4046834
406.30 0.3885633
406.40 0.3742471
406.50 0.3650232
406.60 0.3608992
406.70 0.3609357
406.80 0.3663384
406.90 0.3748601
407.00 0.3760738
407.10 0.3594619
407.20 0.3276005
407.30 0.2965111
407.40 0.2805395
407.50 0.2837279
407.60 0.3050935
407.70 0.3425822
407.80 0.3890921
407.90 0.43345
408.00 0.4719476
408.10 0.5109436
408.20 0.5520347
408.30 0.5826963
408.40 0.5906027
408.50 0.5836925
408.60 0.5835742
408.70 0.600994
408.80 0.6241242
408.90 0.631661
409.00 0.6136463
409.10 0.5791121
409.20 0.54781
409.30 0.5338881
409.40 0.5362832
409.50 0.5415761
409.60 0.5358876
409.70 0.5150115
409.80 0.4891215
409.90 0.476687
410.00 0.4879238
410.10 0.5120153
410.20 0.5255205
410.30 0.5200038
410.40 0.5140648
410.50 0.5305354
410.60 0.5666597
410.70 0.596225
410.80 0.6000595
410.90 0.5841137
411.00 0.5663118
411.10 0.5548419
411.20 0.544857
411.30 0.5312378
411.40 0.5162833
411.50 0.5034335
411.60 0.4911533
411.70 0.4769473
411.80 0.4655626
411.90 0.4700781
412.00 0.4997215
412.10 0.5478816
412.20 0.5943395
412.30 0.6195286
412.40 0.6192182
412.50 0.6055303
412.60 0.5923539
412.70 0.5816754
412.80 0.5661024
412.90 0.541706
413.00 0.5150762
413.10 0.4947689
413.20 0.4811725
413.30 0.4704037
413.40 0.4608571
413.50 0.4512955
413.60 0.4363
413.70 0.4125951
413.80 0.3905521
413.90 0.3885679
414.00 0.4107882
414.10 0.436421
414.20 0.4386869
414.30 0.4127897
414.40 0.38057
414.50 0.3692882
414.60 0.3887866
414.70 0.4272524
414.80 0.4635609
414.90 0.482256
415.00 0.4796663
415.10 0.4621652
415.20 0.4420747
415.30 0.4335404
415.40 0.4446937
415.50 0.4696254
415.60 0.4922858
415.70 0.5030865
415.80 0.5083214
415.90 0.5191835
416.00 0.5355432
416.10 0.5477346
416.20 0.5515176
416.30 0.5506973
