# Version 2.1 - nm, norm@500 to 1, cut digits
# Wavelength(nm)  Flambda(ergs/cm^s/s/nm)
300.00 0.01057975
300.10 0.01406227
300.20 0.01618331
300.30 0.01706061
300.40 0.01729053
300.50 0.01735798
300.60 0.01742523
300.70 0.01749303
300.80 0.01756421
300.90 0.01764411
301.00 0.01773861
301.10 0.01785032
301.20 0.01797664
301.30 0.01811174
301.40 0.01825029
301.50 0.01838954
301.60 0.01852879
301.70 0.01866805
301.80 0.0188073
301.90 0.01894655
302.00 0.01908581
302.10 0.01922506
302.20 0.01936432
302.30 0.01950357
302.40 0.01964282
302.50 0.01978208
302.60 0.01992134
302.70 0.02006112
302.80 0.02020353
302.90 0.0203526
303.00 0.02051277
303.10 0.020686
303.20 0.02087033
303.30 0.02106132
303.40 0.02125493
303.50 0.02144908
303.60 0.02164322
303.70 0.02183737
303.80 0.02203151
303.90 0.02222566
304.00 0.0224198
304.10 0.02261395
304.20 0.02280809
304.30 0.02300224
304.40 0.02319638
304.50 0.02339052
304.60 0.02358466
304.70 0.02377718
304.80 0.02396167
304.90 0.02412579
305.00 0.02425597
305.10 0.02434619
305.20 0.02440248
305.30 0.02443839
305.40 0.02446627
305.50 0.02449254
305.60 0.0245188
305.70 0.02454506
305.80 0.02457132
305.90 0.02459758
306.00 0.02462383
306.10 0.02465009
306.20 0.02467635
306.30 0.02470261
306.40 0.02472886
306.50 0.02475512
306.60 0.02478138
306.70 0.02480764
306.80 0.02483392
306.90 0.02486024
307.00 0.02488664
307.10 0.02491312
307.20 0.02493968
307.30 0.02496628
307.40 0.0249929
307.50 0.02501952
307.60 0.02504615
307.70 0.02507277
307.80 0.02509939
307.90 0.02512601
308.00 0.02515264
308.10 0.02517926
308.20 0.02520588
308.30 0.0252325
308.40 0.02525913
308.50 0.02528577
308.60 0.02531241
308.70 0.0253431
308.80 0.02539388
308.90 0.02549566
309.00 0.02568237
309.10 0.02596908
309.20 0.02634073
309.30 0.02676338
309.40 0.02720611
309.50 0.02765289
309.60 0.02809968
309.70 0.02854648
309.80 0.02899328
309.90 0.02944008
310.00 0.02988689
310.10 0.03033369
310.20 0.03078049
310.30 0.03122729
310.40 0.03167409
310.50 0.03212088
310.60 0.03256766
310.70 0.03301037
310.80 0.03343289
310.90 0.03380414
311.00 0.03409002
311.10 0.03427536
311.20 0.03437531
311.30 0.03442401
311.40 0.0344525
311.50 0.03447694
311.60 0.03450136
311.70 0.03452577
311.80 0.03455018
311.90 0.03457459
312.00 0.034599
312.10 0.03462341
312.20 0.03464782
312.30 0.03467223
312.40 0.03469665
312.50 0.03472107
312.60 0.03474551
312.70 0.03477496
312.80 0.03482937
312.90 0.03494708
313.00 0.03517025
313.10 0.03551758
313.20 0.03597036
313.30 0.03648646
313.40 0.0370275
313.50 0.03757356
313.60 0.03811963
313.70 0.03866571
313.80 0.0392118
313.90 0.03975789
314.00 0.04030397
314.10 0.04085006
314.20 0.04139615
314.30 0.04194224
314.40 0.04248833
314.50 0.04303443
314.60 0.04358054
314.70 0.04413014
314.80 0.04469711
314.90 0.04530815
315.00 0.04599259
315.10 0.04676347
315.20 0.04760774
315.30 0.04849609
315.40 0.04940181
315.50 0.05031101
315.60 0.05122023
315.70 0.05212945
315.80 0.05303868
315.90 0.0539479
316.00 0.05485713
316.10 0.05576636
316.20 0.05667559
316.30 0.05758481
316.40 0.05849402
316.50 0.05940321
316.60 0.06031235
316.70 0.06120867
316.80 0.06204115
316.90 0.06271163
317.00 0.06311229
317.10 0.06319525
317.20 0.06300839
317.30 0.06265953
317.40 0.06224683
317.50 0.0618213
317.60 0.06139573
317.70 0.06097014
317.80 0.06054454
317.90 0.06011893
318.00 0.05969333
318.10 0.05926772
318.20 0.05884211
318.30 0.05841651
318.40 0.05799091
318.50 0.05756533
318.60 0.05713979
318.70 0.05672406
318.80 0.0563572
318.90 0.05611435
319.00 0.05607805
319.10 0.05628494
319.20 0.05669837
319.30 0.05723582
319.40 0.05782213
319.50 0.05841826
319.60 0.05901443
319.70 0.05961061
319.80 0.0602068
319.90 0.06080299
320.00 0.06139919
320.10 0.06199538
320.20 0.06259158
320.30 0.06318777
320.40 0.06378396
320.50 0.06438014
320.60 0.06497631
320.70 0.06556885
320.80 0.06614332
320.90 0.06667192
321.00 0.06712413
321.10 0.06748639
321.20 0.06777227
321.30 0.06801228
321.40 0.06823421
321.50 0.06845251
321.60 0.0686708
321.70 0.06888909
321.80 0.06910737
321.90 0.06932565
322.00 0.06954393
322.10 0.06976221
322.20 0.06998049
322.30 0.07019878
322.40 0.07041708
322.50 0.0706354
322.60 0.07085376
322.70 0.07108539
322.80 0.07138304
322.90 0.07184821
323.00 0.07259242
323.10 0.07366517
323.20 0.07501694
323.30 0.07653624
323.40 0.07812156
323.50 0.07972015
323.60 0.08131878
323.70 0.08291743
323.80 0.0845161
323.90 0.08611477
324.00 0.08771344
324.10 0.08931211
324.20 0.09091078
324.30 0.09250944
324.40 0.09410811
324.50 0.09570678
324.60 0.09730543
324.70 0.09890193
324.80 0.1004877
324.90 0.1020463
325.00 0.1035595
325.10 0.1050194
325.20 0.1064339
325.30 0.1078213
325.40 0.1091979
325.50 0.1105723
325.60 0.1119468
325.70 0.1133212
325.80 0.1146956
325.90 0.1160701
326.00 0.1174445
326.10 0.118819
326.20 0.1201934
326.30 0.1215678
326.40 0.1229423
326.50 0.1243167
326.60 0.1256912
326.70 0.1270703
326.80 0.1284725
326.90 0.1299334
327.00 0.131492
327.10 0.1331656
327.20 0.1349369
327.30 0.1367668
327.40 0.1386199
327.50 0.1404776
327.60 0.1423353
327.70 0.144193
327.80 0.1460507
327.90 0.1479085
328.00 0.1497662
328.10 0.1516239
328.20 0.1534817
328.30 0.1553394
328.40 0.1571971
328.50 0.1590547
328.60 0.1609123
328.70 0.1627426
328.80 0.1644373
328.90 0.1657878
329.00 0.1665652
329.10 0.1666676
329.20 0.1661969
329.30 0.165382
329.40 0.1644315
329.50 0.1634538
329.60 0.162476
329.70 0.1614981
329.80 0.1605202
329.90 0.1595423
330.00 0.1585644
330.10 0.1575864
330.20 0.1566085
330.30 0.1556306
330.40 0.1546527
330.50 0.1536749
330.60 0.1526971
330.70 0.1517395
330.80 0.1508825
330.90 0.1502809
331.00 0.1501044
331.10 0.1504285
331.20 0.1511779
331.30 0.1521825
331.40 0.1532878
331.50 0.1544132
331.60 0.1555388
331.70 0.1566643
331.80 0.1577899
331.90 0.1589155
332.00 0.1600411
332.10 0.1611667
332.20 0.1622923
332.30 0.1634178
332.40 0.1645434
332.50 0.1656689
332.60 0.1667945
332.70 0.1679072
332.80 0.1689562
332.90 0.1698436
333.00 0.1704617
333.10 0.1707629
333.20 0.1707949
333.30 0.1706652
333.40 0.1704719
333.50 0.1702657
333.60 0.1700595
333.70 0.1698533
333.80 0.1696471
333.90 0.1694409
334.00 0.1692346
334.10 0.1690284
334.20 0.1688222
334.30 0.1686161
334.40 0.16841
334.50 0.168204
334.60 0.1681695
334.70 0.1686948
334.80 0.1699294
334.90 0.1711838
335.00 0.1711455
335.10 0.1694565
335.20 0.1681833
335.30 0.1711889
335.40 0.1811577
335.50 0.1965641
335.60 0.21151
335.70 0.2191549
335.80 0.2161277
335.90 0.2041966
336.00 0.1883828
336.10 0.1738559
336.20 0.1642218
336.30 0.1609919
336.40 0.1629429
336.50 0.166267
336.60 0.1668546
336.70 0.1637038
336.80 0.1601955
336.90 0.1614421
337.00 0.169907
337.10 0.1830026
337.20 0.1945707
337.30 0.1991144
337.40 0.195657
337.50 0.1883512
337.60 0.1833037
337.70 0.1840452
337.80 0.1894572
337.90 0.1958221
338.00 0.2002972
338.10 0.2021004
338.20 0.2008195
338.30 0.1951038
338.40 0.1844939
338.50 0.1721251
338.60 0.1642415
338.70 0.165709
338.80 0.175475
338.90 0.1869044
339.00 0.1931107
339.10 0.1925959
339.20 0.1901726
339.30 0.1922313
339.40 0.2008553
339.50 0.2124707
339.60 0.2217108
339.70 0.2259252
339.80 0.2258571
339.90 0.2229856
340.00 0.2178998
340.10 0.2112083
340.20 0.2043179
340.30 0.1982968
340.40 0.1924261
340.50 0.1849534
340.60 0.175457
340.70 0.1658219
340.80 0.1587476
340.90 0.1557693
341.00 0.1567843
341.10 0.1608552
341.20 0.1669019
341.30 0.173655
341.40 0.1796192
341.50 0.1836511
341.60 0.1856379
341.70 0.1865466
341.80 0.187689
341.90 0.1897528
342.00 0.192191
342.10 0.1933299
342.20 0.1913869
342.30 0.1859702
342.40 0.1788847
342.50 0.173219
342.60 0.1712698
342.70 0.1731099
342.80 0.1768875
342.90 0.1802883
343.00 0.1819592
343.10 0.1821156
343.20 0.1820381
343.30 0.1828274
343.40 0.1844443
343.50 0.1859378
343.60 0.1864509
343.70 0.1857483
343.80 0.1840125
343.90 0.1816731
344.00 0.1795151
344.10 0.1784465
344.20 0.1787045
344.30 0.179455
344.40 0.1795254
344.50 0.1785264
344.60 0.1771686
344.70 0.1766392
344.80 0.1778459
344.90 0.1811091
345.00 0.186259
345.10 0.1927635
345.20 0.1997559
345.30 0.2060367
345.40 0.2102655
345.50 0.2116066
345.60 0.210427
345.70 0.2082349
345.80 0.2066485
345.90 0.2062648
346.00 0.2063921
346.10 0.2056557
346.20 0.2029572
346.30 0.198339
346.40 0.1932626
346.50 0.1897576
346.60 0.1888088
346.70 0.1895002
346.80 0.1898665
346.90 0.1884931
347.00 0.1852456
347.10 0.1809985
347.20 0.1772027
347.30 0.175476
347.40 0.1768473
347.50 0.1809453
347.60 0.1861719
347.70 0.1909304
347.80 0.1946935
347.90 0.1979869
348.00 0.2015599
348.10 0.2055465
348.20 0.2091957
348.30 0.211368
348.40 0.2114585
348.50 0.2099272
348.60 0.2078244
348.70 0.2058331
348.80 0.2039483
348.90 0.2019497
349.00 0.1998486
349.10 0.1978318
349.20 0.1960665
349.30 0.1947928
349.40 0.1944416
349.50 0.1952875
349.60 0.1969116
349.70 0.1982643
349.80 0.1985943
349.90 0.1985049
350.00 0.1998817
350.10 0.2044072
350.20 0.2119478
350.30 0.2203847
350.40 0.2270592
350.50 0.2304537
350.60 0.230691
350.70 0.2288238
350.80 0.2259395
350.90 0.2226465
351.00 0.2188373
351.10 0.2137392
351.20 0.2065183
351.30 0.1973524
351.40 0.1880178
351.50 0.1810353
351.60 0.1778843
351.70 0.1779599
351.80 0.1792755
351.90 0.1801188
352.00 0.1800084
352.10 0.1792913
352.20 0.1783714
352.30 0.1775989
352.40 0.1777256
352.50 0.1801289
352.60 0.1860554
352.70 0.1953317
352.80 0.2058712
352.90 0.2148392
353.00 0.2207394
353.10 0.2243702
353.20 0.2276001
353.30 0.2314648
353.40 0.2357118
353.50 0.2398335
353.60 0.2439332
353.70 0.2484022
353.80 0.253234
353.90 0.257999
354.00 0.2621354
354.10 0.2649135
354.20 0.265453
354.30 0.2634024
354.40 0.2596996
354.50 0.2562535
354.60 0.2545177
354.70 0.2544187
354.80 0.2547587
354.90 0.2544725
355.00 0.2533608
355.10 0.2518519
355.20 0.2504011
355.30 0.2492194
355.40 0.2484086
355.50 0.248013
355.60 0.2477829
355.70 0.24702
355.80 0.2449022
355.90 0.2411672
356.00 0.2364244
356.10 0.2316594
356.20 0.2273896
356.30 0.2232505
356.40 0.2183958
356.50 0.2124175
356.60 0.206015
356.70 0.2007461
356.80 0.1979404
356.90 0.1977171
357.00 0.1989957
357.10 0.200331
357.20 0.200669
357.30 0.1995602
357.40 0.1970286
357.50 0.1934291
357.60 0.1893446
357.70 0.1853817
357.80 0.181924
357.90 0.1790462
358.00 0.1767265
358.10 0.1752188
358.20 0.1751504
358.30 0.1771114
358.40 0.181062
358.50 0.1861193
358.60 0.1908992
358.70 0.1941091
358.80 0.1950857
358.90 0.1941163
359.00 0.1924584
359.10 0.1918688
359.20 0.1936357
359.30 0.1976809
359.40 0.2024563
359.50 0.2059131
359.60 0.2068907
359.70 0.205837
359.80 0.2043011
359.90 0.2036234
360.00 0.2038714
360.10 0.2038421
360.20 0.202089
360.30 0.1980841
360.40 0.1926617
360.50 0.1876023
360.60 0.1848064
360.70 0.1855392
360.80 0.1898592
360.90 0.1964862
361.00 0.2034298
361.10 0.2091221
361.20 0.2131607
361.30 0.2160005
361.40 0.2180353
361.50 0.21918
361.60 0.2194133
361.70 0.2193682
361.80 0.2199872
361.90 0.2215663
362.00 0.2234008
362.10 0.224524
362.20 0.2245962
362.30 0.2240011
362.40 0.2233815
362.50 0.2232745
362.60 0.2238588
362.70 0.2246464
362.80 0.2245702
362.90 0.2228321
363.00 0.2198334
363.10 0.2170559
363.20 0.2158674
363.30 0.2165029
363.40 0.2181634
363.50 0.219853
363.60 0.2210192
363.70 0.2216075
363.80 0.2217297
363.90 0.2213398
364.00 0.2201528
364.10 0.2178434
364.20 0.2143747
364.30 0.2101828
364.40 0.2060838
364.50 0.203009
364.60 0.2016446
364.70 0.2020487
364.80 0.203569
364.90 0.2053355
365.00 0.2070558
365.10 0.2093096
365.20 0.2128345
365.30 0.2174274
365.40 0.2216774
365.50 0.2239423
365.60 0.2237029
365.70 0.2219567
365.80 0.2202561
365.90 0.2194493
366.00 0.2193622
366.10 0.2195063
366.20 0.2198478
366.30 0.2207412
366.40 0.2222782
366.50 0.2239313
366.60 0.2248302
366.70 0.2243245
366.80 0.2223226
366.90 0.2192421
367.00 0.2157918
367.10 0.2127769
367.20 0.2109286
367.30 0.2107169
367.40 0.2121467
367.50 0.2147167
367.60 0.2176646
367.70 0.2203629
367.80 0.2225799
367.90 0.2244374
368.00 0.2261524
368.10 0.2277762
368.20 0.2291022
368.30 0.229767
368.40 0.2294861
368.50 0.2283217
368.60 0.2267936
368.70 0.2256639
368.80 0.2254722
368.90 0.2262059
369.00 0.2274504
369.10 0.2288776
369.20 0.2304701
369.30 0.2322124
369.40 0.2336963
369.50 0.234223
369.60 0.233408
369.70 0.231653
369.80 0.230006
369.90 0.2295674
370.00 0.230919
370.10 0.2338955
370.20 0.2377718
370.30 0.2416533
370.40 0.2447837
370.50 0.2466724
370.60 0.2471497
370.70 0.2465006
370.80 0.2454832
370.90 0.2449893
371.00 0.2454666
371.10 0.2465469
371.20 0.2471854
371.30 0.2462014
371.40 0.2429374
371.50 0.2376957
371.60 0.2316943
371.70 0.226497
371.80 0.2232993
371.90 0.2225409
372.00 0.2239423
372.10 0.2265862
372.20 0.2288534
372.30 0.2287054
372.40 0.2246266
372.50 0.2168131
372.60 0.2075299
372.70 0.2000977
372.80 0.1972006
372.90 0.1997111
373.00 0.2066242
373.10 0.2157875
373.20 0.224794
373.30 0.231633
373.40 0.2350934
373.50 0.2348493
373.60 0.2312385
373.70 0.2249398
373.80 0.2168297
373.90 0.2080618
374.00 0.2000825
374.10 0.1943798
374.20 0.1921042
374.30 0.1938665
374.40 0.1997844
374.50 0.2095263
374.60 0.2221877
374.70 0.2361194
374.80 0.2490312
374.90 0.2585727
375.00 0.2631402
375.10 0.2623918
375.20 0.2571925
375.30 0.2491631
375.40 0.2401833
375.50 0.2319966
375.60 0.2257954
375.70 0.2219018
375.80 0.2197867
375.90 0.2185095
376.00 0.2173705
376.10 0.2164248
376.20 0.2165924
376.30 0.2192773
376.40 0.2256826
376.50 0.2362927
376.60 0.2508602
376.70 0.2685652
376.80 0.2879024
376.90 0.3063657
377.00 0.3206535
377.10 0.3278001
377.20 0.3265317
377.30 0.3177609
377.40 0.3039153
377.50 0.2877895
377.60 0.2717465
377.70 0.2574872
377.80 0.2459898
377.90 0.2374584
378.00 0.2314449
378.10 0.227237
378.20 0.2242752
378.30 0.2222577
378.40 0.220975
378.50 0.2202543
378.60 0.2201231
378.70 0.2208997
378.80 0.2230564
378.90 0.2271225
379.00 0.2338439
379.10 0.2442751
379.20 0.2593416
379.30 0.2790295
379.40 0.3018852
379.50 0.3252246
379.60 0.345752
379.70 0.3602172
379.80 0.3661507
379.90 0.362633
380.00 0.3507651
380.10 0.3333484
380.20 0.3138163
380.30 0.2950581
380.40 0.2788113
380.50 0.2657051
380.60 0.2556014
380.70 0.2478885
380.80 0.2416988
380.90 0.2362855
381.00 0.2313905
381.10 0.2272337
381.20 0.22407
381.30 0.221771
381.40 0.2199491
381.50 0.2185059
381.60 0.2178504
381.70 0.2183804
381.80 0.2197538
381.90 0.2208185
382.00 0.2204547
382.10 0.2184343
382.20 0.2155588
382.30 0.2154746
382.40 0.226306
382.50 0.2540809
382.60 0.2946844
382.70 0.332771
382.80 0.3517401
382.90 0.3471251
383.00 0.3266168
383.10 0.3008876
383.20 0.2750104
383.30 0.2450137
383.40 0.20825
383.50 0.1734574
383.60 0.1539317
383.70 0.1489075
383.80 0.1384589
383.90 0.1058524
384.00 0.06136696
384.10 0.03060196
384.20 0.02818985
384.30 0.05520784
384.40 0.1128601
384.50 0.196217
384.60 0.2755765
384.70 0.3111584
384.80 0.2965129
384.90 0.263657
385.00 0.2446964
385.10 0.2420741
385.20 0.2406532
385.30 0.2329775
385.40 0.2197111
385.50 0.1994479
385.60 0.1745016
385.70 0.1575667
385.80 0.1637722
385.90 0.1932277
386.00 0.2267516
386.10 0.2468451
386.20 0.2543647
386.30 0.2613764
386.40 0.2734957
386.50 0.2874045
386.60 0.3068646
386.70 0.3448034
386.80 0.4027102
386.90 0.4531293
387.00 0.4545487
387.10 0.3887482
387.20 0.2833688
387.30 0.1945938
387.40 0.1605235
387.50 0.1712728
387.60 0.1857683
387.70 0.1801028
387.80 0.1693162
387.90 0.1786325
388.00 0.2076585
388.10 0.2334962
388.20 0.2463056
388.30 0.2625835
388.40 0.2989034
388.50 0.3459017
388.60 0.3763821
388.70 0.3719861
388.80 0.3366514
388.90 0.2899911
389.00 0.2518417
389.10 0.2315651
389.20 0.2230876
389.30 0.2138441
389.40 0.2029929
389.50 0.2043291
389.60 0.2291041
389.70 0.2713194
389.80 0.309378
389.90 0.329397
390.00 0.3333316
390.10 0.3288377
390.20 0.3220938
390.30 0.3158564
390.40 0.3163507
390.50 0.3305689
390.60 0.349669
390.70 0.3534463
390.80 0.3354073
390.90 0.3131147
391.00 0.3080984
391.10 0.3220434
391.20 0.3417581
391.30 0.3616846
391.40 0.3910561
391.50 0.4280923
391.60 0.4526828
391.70 0.4467428
391.80 0.411382
391.90 0.3600258
392.00 0.3013609
392.10 0.2421632
392.20 0.1985615
392.30 0.1840607
392.40 0.1932051
392.50 0.2079045
392.60 0.2219838
392.70 0.2444358
392.80 0.2754723
392.90 0.2966692
393.00 0.2931587
393.10 0.2775335
393.20 0.2799489
393.30 0.3156054
393.40 0.3668137
393.50 0.3944176
393.60 0.3712845
393.70 0.3107331
393.80 0.2567745
393.90 0.2449716
394.00 0.2711102
394.10 0.300342
394.20 0.3052671
394.30 0.2873464
394.40 0.2669919
394.50 0.2585009
394.60 0.2632251
394.70 0.2742573
394.80 0.2851598
394.90 0.2931657
395.00 0.3029704
395.10 0.319841
395.20 0.3395858
395.30 0.350159
395.40 0.349635
395.50 0.350486
395.60 0.3608371
395.70 0.3709114
395.80 0.3667651
395.90 0.3536191
396.00 0.3499213
396.10 0.3599499
396.20 0.3651067
396.30 0.3493009
396.40 0.3185123
396.50 0.2897533
396.60 0.2748448
396.70 0.2783128
396.80 0.3018743
396.90 0.3428182
397.00 0.3890947
397.10 0.4256622
397.20 0.4460338
397.30 0.4503128
397.40 0.4406221
397.50 0.4225994
397.60 0.4054824
397.70 0.3944824
397.80 0.3870957
397.90 0.3804275
398.00 0.3770517
398.10 0.3814545
398.20 0.3940229
398.30 0.4149383
398.40 0.4444885
398.50 0.4764404
398.60 0.498651
398.70 0.5036284
398.80 0.4926392
398.90 0.469634
399.00 0.4348368
399.10 0.3928408
399.20 0.3586773
399.30 0.34717
399.40 0.3586891
399.50 0.3781255
399.60 0.3873239
399.70 0.381656
399.80 0.3745705
399.90 0.3835305
400.00 0.4114989
400.10 0.444995
400.20 0.4685642
400.30 0.4782587
400.40 0.4785808
400.50 0.4715753
400.60 0.4552954
400.70 0.431054
400.80 0.4081889
400.90 0.4032023
401.00 0.4294653
401.10 0.4788065
401.20 0.5219125
401.30 0.5321951
401.40 0.5124505
401.50 0.488827
401.60 0.4789191
401.70 0.4768809
401.80 0.4707173
401.90 0.4584458
402.00 0.4432047
402.10 0.4212738
402.20 0.3900089
402.30 0.3618884
402.40 0.358149
402.50 0.3847594
402.60 0.4222083
402.70 0.4455575
402.80 0.4471491
402.90 0.4344682
403.00 0.413208
403.10 0.3818449
403.20 0.3404431
403.30 0.2977225
403.40 0.2660687
403.50 0.2549062
403.60 0.2701395
403.70 0.3139962
403.80 0.3808093
403.90 0.4516939
404.00 0.4996172
404.10 0.5038386
404.20 0.4620693
404.30 0.3927945
404.40 0.3257747
404.50 0.2870721
404.60 0.2867689
404.70 0.3153313
404.80 0.3549895
404.90 0.3945316
405.00 0.4314978
405.10 0.4635333
405.20 0.4828218
405.30 0.4833701
405.40 0.4697831
405.50 0.4524308
405.60 0.4345708
405.70 0.4110162
405.80 0.3818887
405.90 0.3630875
406.00 0.374499
406.10 0.4170975
406.20 0.4699379
406.30 0.50932
406.40 0.5245756
406.50 0.5179325
406.60 0.499813
406.70 0.4886919
406.80 0.5013772
406.90 0.532701
407.00 0.5537829
407.10 0.5417586
407.20 0.5066723
407.30 0.4811916
407.40 0.4813264
407.50 0.4874162
407.60 0.4705072
407.70 0.4249663
407.80 0.374762
407.90 0.3496163
408.00 0.3573446
408.10 0.3792355
408.20 0.3913407
408.30 0.3886352
408.40 0.385977
408.50 0.3959709
408.60 0.4119011
408.70 0.4162649
408.80 0.4013579
408.90 0.3752683
409.00 0.3510994
409.10 0.3374889
409.20 0.3354749
409.30 0.3413135
409.40 0.3520848
409.50 0.3669095
409.60 0.3842698
409.70 0.3998457
409.80 0.408765
409.90 0.4108542
410.00 0.4095718
410.10 0.4064188
410.20 0.4019352
410.30 0.3979848
410.40 0.3957695
410.50 0.3936045
410.60 0.3903569
410.70 0.3906242
410.80 0.4039429
410.90 0.4285903
411.00 0.4468794
411.10 0.4388081
411.20 0.404005
411.30 0.3663696
411.40 0.3535787
411.50 0.3720977
411.60 0.4030763
411.70 0.4248389
411.80 0.4319062
411.90 0.4327843
412.00 0.43719
412.10 0.4462853
412.20 0.4522813
412.30 0.4484437
412.40 0.4370082
412.50 0.4287326
412.60 0.4335467
412.70 0.4480057
412.80 0.456669
412.90 0.4472369
413.00 0.4230879
413.10 0.3990859
413.20 0.3870994
413.30 0.3889552
413.40 0.4034976
413.50 0.4310043
413.60 0.4679978
413.70 0.504462
413.80 0.5285016
413.90 0.5329246
414.00 0.515798
414.10 0.4809853
414.20 0.4407002
414.30 0.4132643
414.40 0.4068044
414.50 0.4116394
414.60 0.4119952
414.70 0.4042191
414.80 0.3988422
414.90 0.4070269
415.00 0.4248606
415.10 0.4360772
415.20 0.4318205
415.30 0.4220471
415.40 0.4246613
415.50 0.4460318
415.60 0.473345
415.70 0.488636
415.80 0.486978
415.90 0.4760974
416.00 0.4632343
416.10 0.4504125
416.20 0.4402715
